Timestamp_s,RED,IR
0.0057,58245,59071
0.0135,58284,59130
0.0338,58355,59208
0.0982,58366,59286
0.0982,58429,59355
0.0982,58477,59432
0.1238,58493,59473
0.1451,58483,59457
0.1671,58463,59416
0.1942,58424,59396
0.2165,58435,59367
0.2424,58496,59383
0.2557,58425,59389
0.2785,58469,59430
0.2986,58511,59448
0.331,58531,59541
0.3393,58541,59602
0.3659,58611,59589
0.3885,58594,59655
0.4106,58627,59677
0.4329,58645,59744
0.4445,58628,59755
0.4759,58700,59824
0.5036,58689,59839
0.5249,58739,59845
0.5409,58600,59737
0.5682,58467,59460
0.5851,58317,59194
0.6135,58083,58769
0.6318,58076,58730
0.6594,58064,58740
0.6737,58097,58772
0.6942,58124,58833
0.7203,58174,58901
0.7418,58209,58990
0.7626,58265,59068
0.7844,58294,59118
0.8062,58319,59155
0.8323,58318,59144
0.8529,58274,59118
0.8747,58290,59073
0.896,58250,59064
0.9154,58235,59083
0.9393,58275,59111
0.964,58278,59148
0.9798,58338,59182
1.0003,58370,59239
1.0254,58388,59277
1.0483,58431,59317
1.0694,58458,59412
1.09,58504,59459
1.1112,58525,59498
1.132,58518,59514
1.1597,58538,59562
1.1809,58562,59575
1.2011,58572,59604
1.2282,58488,59514
1.2432,58354,59268
1.2706,58193,59020
1.2914,58000,58607
1.3223,58005,58638
1.3344,58005,58605
1.3552,58010,58663
1.3806,58084,58713
1.4024,58106,58782
1.4232,58137,58825
1.444,58197,58899
1.4644,58236,58976
1.4858,58255,59007
1.5135,58246,58972
1.534,58225,58960
1.5542,58182,58940
1.582,58182,58942
1.5991,58221,58945
1.6177,58217,59003
1.6427,58280,59048
1.6595,58290,59077
1.6865,58300,59133
1.7079,58355,59179
1.7357,58368,59229
1.7519,58365,59363
1.7854,58471,59381
1.7976,58484,59390
1.8239,58447,59491
1.8404,58503,59496
1.8609,58495,59517
1.8866,58547,59458
1.9122,58420,59331
1.9302,58270,59092
1.9439,58127,58883
1.9719,58005,58563
1.9996,58024,58642
2.0205,58046,58610
2.0351,58116,58655
2.0704,58125,58786
2.0754,58142,58819
2.109,58209,58899
2.1264,58262,58992
2.1454,58274,58978
2.1723,58252,59006
2.1794,58222,58941
2.2151,58184,58882
2.244,58159,58867
2.2597,58164,58857
2.2843,58194,58890
2.2995,58203,58926
2.3236,58244,58976
2.3488,58268,59018
2.374,58285,59053
2.3885,58324,59091
2.4116,58323,59128
2.437,58375,59178
2.4562,58389,59221
2.4786,58412,59250
2.4998,58425,59261
2.5304,58368,59207
2.548,58245,58994
2.5691,58083,58756
2.5889,57963,58538
2.6236,57892,58384
2.6368,57865,58325
2.6617,57911,58286
2.678,57934,58403
2.694,57981,58460
2.7265,58040,58529
2.735,58066,58602
2.7701,58100,58647
2.7871,58091,58680
2.8141,58093,58648
2.8293,58062,58615
2.8677,58037,58567
2.8797,58044,58523
2.9035,58037,58541
2.9085,58060,58590
2.9361,58078,58625
2.9638,58116,58660
2.9901,58124,58726
3.0067,58167,58748
3.0274,58179,58780
3.0481,58188,58826
3.0689,58211,58847
3.0966,58224,58848
3.113,58267,58932
3.1437,58285,58951
3.1605,58223,58915
3.186,58079,58725
3.2054,57929,58462
3.2337,57807,58215
3.2485,57775,58045
3.2709,57705,57981
3.2913,57754,57989
3.3126,57766,58020
3.3419,57867,58094
3.363,57873,58166
3.3837,57898,58237
3.3877,57900,58257
3.4277,57908,58273
3.4364,57912,58248
3.47,57870,58234
3.4894,57905,58217
3.5155,57893,58217
3.5272,57887,58209
3.5563,57910,58180
3.5794,57978,58297
3.6098,57987,58336
3.6246,58015,58364
3.6497,58027,58420
3.6686,58064,58430
3.6877,58115,58499
3.7138,58094,58514
3.7346,58120,58564
3.7566,58144,58572
3.7704,58151,58604
3.8051,58164,58672
3.8221,58158,58658
3.8465,58080,58553
3.868,57946,58280
3.8819,57791,58032
3.9024,57685,57844
3.9299,57660,57741
3.9505,57647,57739
3.9717,57658,57751
3.9919,57722,57805
4.0199,57747,57814
4.0402,57784,57885
4.062,57787,57915
4.0827,57807,57958
4.1105,57821,57983
4.1308,57798,57965
4.1521,57786,57932
4.1728,57779,57923
4.2101,57784,57937
4.2141,57811,57943
4.2398,57811,57964
4.2599,57886,58049
4.2924,57897,58118
4.2974,57941,58156
4.3262,57957,58217
4.3465,57994,58242
4.3746,57997,58275
4.3915,58022,58319
4.416,58048,58316
4.4399,58024,58342
4.4687,58028,58360
4.4801,58063,58406
4.5027,58053,58444
4.527,58098,58457
4.5614,58082,58481
4.5614,58071,58478
4.5899,57993,58415
4.6163,57865,58176
4.6332,57716,57911
4.6519,57602,57719
4.6794,57597,57596
4.701,57584,57615
4.7217,57630,57681
4.7466,57681,57718
4.7746,57694,57743
4.7912,57696,57792
4.8051,57730,57807
4.8469,57727,57879
4.8529,57724,57873
4.8796,57700,57874
4.8984,57738,57849
4.9368,57712,57851
4.9368,57812,57893
4.969,57784,57915
4.971,57855,57989
5.0076,57853,58033
5.0342,57883,58069
5.061,57942,58129
5.0681,57930,58146
5.0958,57981,58236
5.1234,57965,58216
5.1449,57993,58283
5.1643,58077,58313
5.1799,58036,58346
5.2118,58057,58352
5.2379,58052,58388
5.2534,58071,58430
5.2715,58096,58439
5.3178,58111,58482
5.3597,58112,58509
5.3694,58149,58541
5.3746,58146,58597
5.3836,58196,58641
5.4116,58112,58557
5.4252,57944,58322
5.4465,57788,58027
5.4718,57673,57827
5.4925,57604,57677
5.5152,57581,57672
5.5345,57609,57697
5.555,57649,57727
5.5899,57661,57769
5.5963,57705,57814
5.6236,57780,57899
5.6456,57771,57940
5.6702,57786,57925
5.6891,57768,57925
5.713,57773,57902
5.7355,57760,57914
5.7559,57771,57913
5.7771,57808,57926
5.8113,57822,57966
5.8113,57859,58025
5.8507,57964,58126
5.86,57938,58169
5.89,57971,58227
5.9095,58011,58262
5.9433,57996,58336
5.9433,58033,58335
5.9847,58035,58374
5.9847,58035,58400
6.0194,58078,58395
6.0475,58067,58441
6.0758,58093,58467
6.0858,58119,58528
6.1077,58168,58539
6.1322,58171,58580
6.1533,58172,58627
6.1729,58210,58643
6.194,58231,58672
6.2247,58151,58581
6.2354,58001,58319
6.2645,57839,58096
6.2854,57768,57909
6.3053,57700,57769
6.3468,57714,57738
6.3573,57793,57813
6.3738,57781,57869
6.3996,57813,57932
6.4164,57815,57972
6.44,57858,58010
6.4501,57890,58054
6.4984,57845,58040
6.5133,57867,58000
6.5273,57907,57993
6.5579,57869,57954
6.5685,57894,57959
6.5927,57936,58059
6.6028,57949,58056
6.6379,57966,58124
6.6595,58017,58191
6.6796,58042,58205
6.7009,58050,58254
6.7214,58081,58308
6.7553,58087,58291
6.77,58115,58339
6.791,58151,58364
6.8157,58163,58364
6.8368,58171,58412
6.8689,58185,58423
6.8821,58184,58434
6.9034,58186,58459
6.9228,58207,58478
6.9364,58242,58502
6.9664,58255,58556
6.9894,58274,58578
7.0202,58187,58467
7.0318,58011,58235
7.0552,57878,57942
7.0889,57765,57743
7.0889,57729,57654
7.126,57762,57653
7.138,57783,57656
7.1633,57799,57705
7.1878,57832,57711
7.2076,57912,57782
7.2301,57847,57801
7.252,57874,57823
7.2702,57865,57814
7.2983,57885,57818
7.3278,57886,57807
7.3399,57877,57777
7.3619,57888,57764
7.3835,57924,57793
7.4092,57952,57843
7.4294,57963,57907
7.4669,58016,58004
7.4872,58070,58049
7.5082,58094,58090
7.5233,58109,58108
7.5622,58125,58151
7.5689,58122,58165
7.5838,58134,58197
7.6148,58170,58212
7.6298,58150,58246
7.6494,58188,58270
7.6699,58208,58275
7.6931,58206,58325
7.7147,58245,58327
7.7358,58279,58448
7.7557,58303,58432
7.7792,58278,58468
7.8048,58337,58514
7.8251,58310,58550
7.8464,58340,58553
7.8678,58241,58445
7.9021,57969,57924
7.914,57804,57710
7.9388,57764,57606
7.9566,57740,57608
7.978,57807,57615
8.0052,57827,57683
8.027,57828,57685
8.0462,57835,57684
8.0618,57841,57710
8.0939,57889,57707
8.1135,57884,57756
8.132,57891,57756
8.1563,57892,57752
8.1731,57909,57755
8.2037,57913,57737
8.2285,57939,57791
8.2419,57951,57829
8.2634,58003,57865
8.29,58018,57910
8.3043,58036,57966
8.3323,58068,58009
8.3464,58132,58046
8.3759,58121,58103
8.3979,58133,58139
8.4229,58147,58171
8.4368,58186,58200
8.4617,58171,58221
8.471,58194,58242
8.5065,58226,58275
8.5284,58247,58307
8.5491,58252,58330
8.5746,58324,58421
8.6064,58286,58439
8.6165,58303,58482
8.6372,58311,58516
8.6656,58344,58556
8.6912,58370,58569
8.707,58376,58619
8.7221,58409,58653
8.7434,58373,58615
8.7695,58228,58413
8.791,58074,58154
8.8119,57848,57802
8.8329,57854,57741
8.8578,57851,57734
8.8805,57879,57798
8.9024,57928,57801
8.9815,57920,57830
8.992,57951,57856
9.0344,57978,57905
9.0407,57985,57924
9.0571,57994,57915
9.0636,57986,57917
9.0709,58005,57925
9.086,57997,57912
9.1251,58029,57937
9.1295,58039,57974
9.1446,58056,58031
9.1811,58124,58091
9.1932,58143,58141
9.2159,58216,58176
9.2334,58219,58247
9.2498,58316,58326
9.2762,58218,58334
9.3147,58281,58380
9.3177,58279,58401
9.3519,58292,58431
9.3686,58278,58467
9.3828,58298,58510
9.4148,58311,58491
9.4372,58311,58550
9.4637,58366,58558
9.4789,58393,58573
9.5005,58384,58669
9.5179,58430,58715
9.5607,58454,58765
9.565,58481,58798
9.5828,58497,58829
9.6084,58481,58798
9.6302,58365,58659
9.645,58213,58405
9.6874,58069,58209
9.6934,58005,58031
9.7139,57979,57979
9.7388,58019,58020
9.7642,58051,58080
9.7769,58114,58155
9.8091,58128,58204
9.8269,58151,58242
9.8541,58175,58266
9.8666,58154,58259
9.8916,58175,58248
9.9291,58144,58237
9.937,58189,58213
9.9639,58144,58226
9.9783,58188,58265
9.9989,58209,58293
10.0379,58236,58364
10.0404,58261,58412
10.0749,58293,58462
10.0908,58320,58479
10.1102,58347,58529
10.1482,58379,58568
10.1583,58393,58617
10.1796,58391,58687
10.2024,58434,58718
10.2215,58447,58730
10.2481,58474,58791
10.2554,58465,58794
10.2881,58514,58817
10.3081,58525,58858
10.3455,58558,58890
10.3455,58581,58943
10.3785,58590,58948
10.3982,58620,59019
10.4158,58648,59062
10.4459,58670,59050
10.4646,58664,59076
10.4895,58536,58931
10.509,58400,58612
10.528,58268,58395
10.5638,58147,58218
10.5679,58152,58129
10.5965,58163,58141
10.6026,58165,58164
10.6402,58205,58186
10.6603,58221,58254
10.6892,58269,58267
10.7002,58301,58302
10.7276,58300,58353
10.7564,58301,58297
10.7699,58281,58293
10.7897,58269,58266
10.8116,58302,58315
10.8495,58305,58313
10.8595,58315,58320
10.8833,58368,58382
10.9033,58387,58442
10.9226,58430,58509
10.9427,58455,58512
10.9772,58471,58533
10.9845,58495,58613
11.0132,58531,58663
11.036,58552,58672
11.0651,58572,58699
11.0752,58578,58713
11.1023,58607,58750
11.1362,58610,58794
11.1448,58636,58826
11.1647,58640,58866
11.1865,58670,58880
11.2064,58681,58910
11.2369,58706,58919
11.2484,58710,58958
11.278,58730,58993
11.2901,58796,59081
11.3246,58752,59106
11.3514,58787,59136
11.3595,58739,59015
11.3873,58600,58832
11.4162,58451,58597
11.434,58341,58380
11.4504,58268,58248
11.4804,58269,58220
11.4916,58308,58219
11.5234,58314,58274
11.5467,58343,58327
11.5605,58398,58392
11.5824,58431,58422
11.6103,58436,58450
11.6378,58436,58442
11.6518,58427,58454
11.6749,58426,58417
11.7022,58435,58414
11.7328,58394,58389
11.7455,58424,58440
11.7647,58474,58484
11.7839,58491,58556
11.8036,58528,58554
11.8255,58550,58599
11.8532,58551,58669
11.8671,58596,58716
11.8947,58611,58771
11.9147,58626,58771
11.9483,58663,58797
11.9572,58660,58826
11.9814,58718,58867
11.9914,58684,58873
12.0337,58729,58921
12.0497,58708,58937
12.0684,58740,58971
12.0893,58752,58990
12.1101,58760,59036
12.1379,58822,59055
12.1621,58840,59140
12.172,58848,59134
12.2007,58843,59165
12.2281,58801,59058
12.2532,58696,58869
12.2622,58548,58646
12.2896,58422,58523
12.313,58390,58370
12.3439,58425,58368
12.3528,58410,58377
12.3767,58456,58473
12.4052,58474,58525
12.4216,58522,58551
12.4446,58566,58598
12.4567,58581,58649
12.4917,58575,58641
12.5134,58546,58623
12.5327,58542,58591
12.5481,58537,58567
12.581,58515,58559
12.5886,58552,58598
12.6214,58562,58614
12.6379,58611,58685
12.6653,58699,58763
12.6865,58678,58808
12.7063,58703,58851
12.7282,58720,58902
12.7572,58756,58949
12.7784,58776,58963
12.79,58778,58986
12.818,58810,59028
12.8393,58812,59040
12.8663,58846,59076
12.8736,58838,59085
12.9064,58858,59142
12.9153,58885,59170
12.9567,58907,59212
12.9724,58924,59229
12.9956,58932,59288
13.0148,58954,59319
13.0427,58981,59342
13.0539,58946,59296
13.0836,58847,59112
13.0886,58675,58886
13.1255,58489,58512
13.1508,58439,58443
13.1785,58480,58431
13.1927,58477,58488
13.2133,58502,58501
13.2411,58545,58565
13.256,58562,58574
13.2761,58596,58628
13.298,58602,58653
13.332,58622,58659
13.3493,58599,58659
13.3597,58562,58610
13.3899,58573,58599
13.408,58594,58602
13.4371,58624,58647
13.4648,58624,58672
13.4776,58662,58721
13.4995,58708,58768
13.5271,58694,58812
13.5501,58717,58840
13.5611,58760,58889
13.5875,58791,58963
13.6114,58796,58993
13.631,58856,59043
13.6559,58849,59014
13.6652,58855,59072
13.707,58862,59081
13.7228,58890,59093
13.7421,58885,59133
13.7621,58890,59180
13.7837,58933,59220
13.8113,58945,59292
13.8387,58984,59328
13.853,58990,59350
13.8761,58995,59427
13.8972,59052,59383
13.9261,59041,59442
13.9389,58990,59395
13.9642,58837,59147
13.9872,58673,58870
14.0042,58574,58660
14.027,58513,58478
14.0547,58463,58514
14.0769,58527,58558
14.0885,58571,58574
14.1152,58590,58641
14.1391,58615,58655
14.1587,58627,58677
14.1787,58639,58698
14.2024,58624,58729
14.2209,58618,58679
14.2502,58613,58668
14.271,58599,58642
14.2905,58611,58656
14.3156,58625,58685
14.3397,58665,58722
14.359,58673,58755
14.3739,58687,58819
14.4021,58724,58855
14.4218,58768,58907
14.4434,58778,58952
14.4636,58792,58970
14.4919,58860,59023
14.5129,58863,59084
14.5336,58864,59087
14.5552,58884,59137
14.5818,58894,59169
14.5888,58907,59192
14.6229,58908,59211
14.6404,58953,59261
14.6675,58967,59280
14.6945,58999,59300
14.7069,59044,59365
14.7313,58985,59406
14.7577,59046,59446
14.7766,59080,59461
14.7987,59095,59514
14.8107,59094,59545
14.8431,59008,59447
14.8668,58896,59195
14.8867,58709,58984
14.9017,58626,58768
14.9341,58522,58641
14.959,58544,58577
14.978,58589,58658
14.9924,58617,58677
15.0268,58632,58744
15.0408,58675,58773
15.0613,58687,58813
15.0827,58701,58850
15.1139,58660,58845
15.125,58662,58821
15.1518,58701,58788
15.1646,58643,58762
15.2035,58643,58750
15.2065,58652,58776
15.2382,58668,58816
15.2575,58724,58855
15.2916,58794,58908
15.2966,58790,58934
15.3265,58778,59011
15.3462,58822,59021
15.3742,58840,59065
15.3877,58884,59169
15.4154,58820,59169
15.4354,58895,59169
15.4614,58906,59193
15.485,58927,59216
15.5039,58942,59294
15.5197,58949,59289
15.554,58967,59336
15.569,58976,59296
15.589,58987,59353
15.6089,59022,59430
15.6476,59027,59443
15.6506,59056,59528
15.6783,59054,59490
15.6856,58989,59388
15.7277,58850,59183
15.7431,58726,58974
15.7687,58653,58781
15.7905,58617,58706
15.8071,58607,58693
15.8313,58617,58712
15.8536,58674,58816
15.8826,58723,58888
15.904,58754,58928
15.9254,58790,58993
15.9432,58799,58991
15.9663,58767,58981
15.9777,58759,58949
16.009,58747,58925
16.0195,58714,58900
16.0464,58716,58876
16.0824,58766,58921
16.0954,58747,58952
16.12,58800,58987
16.1366,58813,59010
16.1654,58853,59064
16.1856,58859,59091
16.2137,58878,59114
16.2208,58885,59174
16.2482,58904,59199
16.2833,58900,59210
16.2983,58907,59249
16.3258,58920,59268
16.3384,58962,59294
16.36,58968,59321
16.3801,58983,59345
16.4089,59000,59381
16.4214,59002,59404
16.4492,59033,59434
16.471,59037,59458
16.5046,59048,59489
16.5056,59015,59439
16.5382,58744,59000
16.5609,58605,58783
16.5752,58548,58623
16.6029,58526,58558
16.6227,58478,58532
16.6445,58554,58586
16.6645,58609,58651
16.6986,58581,58696
16.7063,58616,58748
16.736,58648,58807
16.7486,58674,58798
16.7831,58664,58820
16.7988,58644,58746
16.8253,58625,58713
16.8428,58601,58696
16.8599,58573,58674
16.8877,58661,58711
16.9144,58633,58732
16.9292,58682,58765
16.9496,58677,58813
16.9779,58679,58878
17.0074,58775,58870
17.0197,58765,58951
17.0404,58750,59001
17.0683,58790,59044
17.0865,58791,59039
17.1089,58826,59073
17.1236,58824,59075
17.1616,58829,59115
17.1717,58852,59143
17.1975,58864,59152
17.2154,58889,59191
17.254,58895,59250
17.255,58919,59264
17.2837,58920,59347
17.3057,58961,59351
17.325,58913,59276
17.3452,58782,59096
17.3749,58630,58877
17.3869,58503,58636
17.4143,58447,58490
17.4373,58438,58430
17.463,58415,58470
17.4769,58472,58514
17.4987,58481,58552
17.5266,58505,58585
17.5542,58540,58631
17.5703,58557,58651
17.5891,58542,58663
17.6189,58521,58644
17.6433,58504,58592
17.6584,58482,58585
17.6793,58504,58539
17.7113,58526,58598
17.7133,58539,58607
17.748,58571,58670
17.7552,58575,58717
17.7969,58611,58743
17.8126,58639,58807
17.8322,58658,58823
17.8518,58691,58850
17.8737,58699,58891
17.9014,58735,58918
17.9259,58742,58974
17.9459,58747,59017
17.966,58768,59047
17.9926,58759,59050
18.0196,58788,59062
18.0344,58803,59076
18.0557,58811,59106
18.0741,58810,59148
18.0964,58841,59161
18.1327,58875,59226
18.1424,58816,59243
18.1658,58776,59121
18.1719,58630,58889
18.2065,58477,58662
18.2338,58389,58461
18.2556,58339,58361
18.2754,58315,58315
18.2904,58392,58338
18.324,58370,58402
18.3473,58421,58481
18.3667,58454,58547
18.3806,58534,58634
18.4085,58502,58581
18.4282,58505,58577
18.4622,58440,58568
18.4703,58432,58487
18.4959,58401,58537
18.5324,58428,58546
18.5388,58451,58549
18.5633,58455,58515
18.5831,58516,58586
18.6033,58598,58661
18.6296,58547,58724
18.6537,58589,58727
18.665,58625,58766
18.6913,58613,58818
18.7155,58634,58843
18.7348,58651,58818
18.7546,58655,58895
18.7763,58648,58888
18.8155,58674,58917
18.8238,58636,58934
18.848,58676,58946
18.8666,58688,58978
18.8887,58701,59019
18.9011,58720,59057
18.9363,58741,59059
18.9544,58649,58968
18.9773,58536,58764
18.9986,58420,58564
19.0184,58279,58376
19.0484,58219,58224
19.0604,58270,58257
19.1021,58272,58329
19.1021,58323,58372
19.1322,58373,58439
19.153,58397,58492
19.1864,58438,58559
19.1924,58431,58563
19.2221,58414,58544
19.227,58391,58505
19.2695,58361,58420
19.2893,58360,58449
19.3042,58359,58462
19.324,58398,58499
19.3642,58420,58540
19.3662,58438,58596
19.3993,58476,58619
19.417,58494,58672
19.4362,58494,58710
19.4698,58519,58734
19.4917,58571,58791
19.5088,58541,58836
19.5264,58573,58830
19.5544,58598,58875
19.574,58602,58885
19.5948,58613,58903
19.6087,58620,58913
19.6489,58635,58926
19.6589,58658,58967
19.6781,58656,58990
19.7071,58683,59012
19.7236,58441,58664
19.7544,58278,58443
19.7617,58174,58248
19.7938,58109,58093
19.8036,58079,58064
19.8383,58109,58087
19.8668,58140,58128
19.8804,58144,58155
19.9004,58211,58207
19.9235,58228,58245
19.9531,58220,58275
19.9698,58216,58268
19.9893,58175,58217
19.9989,58183,58182
20.0335,58180,58208
20.0613,58171,58147
20.0739,58204,58265
20.1099,58211,58251
20.1158,58217,58271
20.1516,58235,58353
20.1679,58346,58414
20.1932,58331,58430
20.2059,58329,58428
20.2325,58361,58469
20.2617,58398,58525
20.2688,58382,58518
20.3014,58389,58564
20.3219,58430,58588
20.3388,58406,58647
20.3597,58425,58639
20.3848,58421,58678
20.4095,58426,58708
20.4294,58488,58773
20.4499,58499,58784
20.4696,58484,58801
20.4921,58507,58801
20.5193,58406,58674
20.5454,58248,58420
20.5534,58104,58181
20.5826,57982,58000
20.6102,57932,57879
20.6239,57952,57861
20.6515,57971,57928
20.6757,58003,57956
20.6931,58014,57986
20.7128,58037,58014
20.7418,58060,58047
20.7544,58078,58054
20.7834,58065,58033
20.7964,58036,58041
20.8383,58020,58024
20.8527,58034,58003
20.8752,58014,58037
20.8867,58042,58076
20.9125,58097,58110
20.9215,58126,58146
20.963,58151,58204
20.9787,58201,58232
20.9985,58194,58276
21.0231,58188,58292
21.0478,58214,58337
21.0679,58247,58379
21.0914,58235,58398
21.1024,58267,58442
21.1368,58293,58472
21.1583,58290,58492
21.1791,58322,58514
21.1989,58350,58556
21.221,58363,58563
21.2474,58365,58604
21.2552,58375,58635
21.2878,58407,58681
21.2969,58454,58740
21.3365,58440,58806
21.3587,58405,58746
21.3725,58302,58604
21.3943,58143,58321
21.428,58009,58105
21.442,57905,57915
21.4657,57872,57860
21.4836,57879,57850
21.5063,57897,57902
21.5253,57933,57959
21.5572,57939,58012
21.5673,57992,58040
21.5948,57979,58060
21.6225,58009,58066
21.6374,58002,58038
21.6572,57976,58031
21.679,57980,58050
21.7199,57948,58017
21.7269,58033,58046
21.7533,58044,58056
21.7712,58056,58137
21.7902,58095,58184
21.8251,58058,58189
21.8386,58159,58291
21.863,58161,58316
21.8817,58126,58323
21.9012,58157,58335
21.929,58163,58380
21.9499,58191,58421
21.9706,58203,58410
21.9905,58238,58470
22.0123,58281,58486
22.0386,58238,58510
22.0501,58239,58584
22.0808,58299,58558
22.088,58325,58605
22.1287,58328,58692
22.1501,58341,58688
22.171,58381,58714
22.1929,58380,58737
22.2167,58263,58604
22.2337,58131,58384
22.2565,57968,58192
22.2763,57879,58020
22.3062,57849,57926
22.3169,57852,57897
22.3517,57870,57940
22.3588,57901,57979
22.3926,57897,58017
22.3976,57954,58082
22.4357,57977,58120
22.4558,57990,58149
22.4809,57980,58138
22.4908,57948,58105
22.5258,57940,58083
22.5425,57941,58061
22.572,57941,58061
22.5814,57973,58075
22.6068,58004,58099
22.632,58032,58149
22.6594,58048,58195
22.6722,58071,58274
22.6924,58115,58282
22.7206,58109,58343
22.7407,58140,58360
22.7624,58160,58396
22.7821,58164,58406
22.8212,58167,58406
22.8242,58191,58448
22.8508,58194,58446
22.8588,58215,58485
22.8932,58224,58548
22.9211,58276,58554
22.9445,58277,58610
22.9562,58281,58644
22.9808,58295,58645
23.0068,58241,58568
23.0321,58107,58386
23.053,57952,58159
23.0678,57864,57941
23.0959,57773,57827
23.1148,57795,57736
23.1372,57829,57861
23.1571,57840,57899
23.1921,57873,57954
23.1991,57899,57998
23.2265,57909,58043
23.2337,57931,58024
23.2669,57938,58040
23.2756,57929,57998
23.3141,57923,57975
23.3316,57895,57971
23.3514,57894,57937
23.3793,57935,57991
23.4002,58001,58045
23.4232,57981,58092
23.4427,58033,58147
23.4708,58041,58153
23.4926,58052,58179
23.5122,58099,58235
23.5309,58097,58256
23.564,58073,58287
23.5741,58137,58335
23.5951,58186,58337
23.6154,58156,58353
23.6373,58136,58375
23.6665,58202,58461
23.6901,58197,58473
23.7078,58216,58437
23.7275,58241,58526
23.7509,58271,58559
23.7759,58276,58579
23.789,58280,58625
23.8225,58115,58350
23.831,57958,58049
23.8591,57812,57842
23.8925,57753,57692
23.8935,57714,57621
23.9311,57717,57656
23.9422,57759,57692
23.9771,57766,57745
23.9928,57796,57777
24.0179,57823,57781
24.0406,57857,57846
24.0533,57880,57850
24.0892,57887,57843
24.111,57877,57834
24.1234,57871,57827
24.1449,57884,57838
24.1784,57890,57865
24.1917,57910,57895
24.2196,57945,57922
24.2374,57963,57977
24.2558,58032,58050
24.2813,58076,58090
24.3054,58075,58143
24.3247,58082,58169
24.3445,58112,58213
24.3729,58121,58236
24.3866,58137,58273
24.414,58159,58296
24.4358,58179,58329
24.4578,58202,58355
24.4801,58216,58381
24.5053,58256,58473
24.5261,58284,58472
24.5512,58322,58527
24.5601,58318,58569
24.5868,58337,58613
24.6106,58358,58659
24.6302,58390,58698
24.6575,58391,58727
24.6784,58310,58642
24.6917,58178,58421
24.7279,57903,58009
24.74,57867,57906
24.7656,57880,57881
24.7848,57892,57923
24.8041,57924,57970
24.8315,57921,58007
24.8593,57959,58041
24.8736,57997,58074
24.8931,58019,58127
24.9312,58017,58149
24.9351,58023,58130
24.9668,58039,58131
24.9834,58028,58126
25.0043,58041,58138
25.0261,58051,58159
25.0538,58079,58179
25.0736,58083,58218
25.0875,58112,58262
25.1295,58133,58313
25.1378,58169,58334
25.1582,58201,58407
25.1828,58255,58502
25.1999,58237,58509
25.2274,58278,58521
25.2494,58309,58539
25.2614,58315,58581
25.2905,58343,58631
25.3179,58363,58649
25.3385,58360,58681
25.3582,58381,58696
25.3793,58401,58759
25.4143,58404,58842
25.4143,58465,58860
25.4469,58486,58880
25.4647,58499,58923
25.4976,58560,59000
25.5047,58563,59001
25.5333,58573,59049
25.5541,58541,59037
25.574,58489,58940
25.6066,58357,58732
25.6156,58149,58395
25.6457,58114,58354
25.6578,58092,58344
25.6922,58125,58368
25.7081,58149,58401
25.7345,58194,58409
25.7475,58228,58451
25.7893,58229,58520
25.7966,58253,58569
25.824,58243,58565
25.8399,58250,58551
25.8593,58231,58520
25.8872,58251,58514
25.907,58243,58512
25.9287,58248,58529
25.9486,58275,58563
25.9732,58297,58622
25.998,58332,58633
26.0226,58369,58671
26.0323,58402,58714
26.0611,58415,58734
26.0828,58399,58821
26.1024,58432,58846
26.13,58459,58881
26.1521,58474,58901
26.1727,58496,58919
26.194,58510,58964
26.2059,58540,58984
26.2397,58564,59018
26.2595,58573,59050
26.2795,58601,59075
26.3038,58602,59121
26.3314,58637,59199
26.3488,58660,59217
26.3663,58614,59160
26.3883,58521,59024
26.4148,58395,58845
26.4426,58281,58656
26.4598,58238,58566
26.4803,58219,58501
26.501,58229,58509
26.522,58243,58526
26.5564,58280,58579
26.5702,58296,58620
26.5886,58333,58650
26.6093,58340,58672
26.629,58347,58675
26.6675,58315,58673
26.6818,58312,58649
26.7077,58317,58610
26.7198,58317,58611
26.7412,58331,58617
26.7781,58378,58663
26.7935,58393,58706
26.8189,58435,58746
26.8317,58459,58783
26.8537,58499,58823
26.8802,58471,58884
26.8984,58529,58881
26.9216,58533,58918
26.9417,58550,58980
26.9625,58577,58960
26.9915,58610,59013
27.0132,58629,59082
27.0268,58645,59116
27.0468,58649,59106
27.0805,58652,59176
27.0946,58691,59202
27.1222,58710,59253
27.136,58748,59285
27.1578,58730,59300
27.1855,58742,59349
27.2059,58777,59334
27.2274,58565,59114
27.2474,58496,58883
27.275,58358,58723
27.2892,58338,58619
27.3106,58279,58560
27.3308,58267,58563
27.3706,58345,58596
27.3806,58313,58615
27.4081,58352,58658
27.4212,58324,58621
27.4426,58432,58720
27.4706,58400,58691
27.4981,58423,58734
27.512,58433,58639
27.5318,58429,58676
27.565,58423,58661
27.5739,58430,58675
27.6046,58475,58684
27.6246,58461,58742
27.6449,58516,58807
27.672,58543,58877
27.6939,58580,58928
27.7133,58630,58946
27.7273,58634,58981
27.7632,58671,59023
27.7819,58681,59059
27.8039,58683,59077
27.8165,58699,59083
27.8383,58710,59121
27.8661,58737,59156
27.8872,58743,59177
27.9078,58757,59209
27.9277,58786,59232
27.9637,58801,59262
27.9697,58833,59295
28.0013,58844,59321
28.0201,58858,59353
28.0399,58841,59322
28.0682,58741,59194
28.0742,58595,58976
28.1069,58483,58784
28.1159,58448,58566
28.1589,58339,58539
28.1731,58377,58569
28.1927,58404,58567
28.2127,58431,58613
28.2464,58461,58644
28.2623,58491,58656
28.2856,58496,58689
28.2959,58502,58700
28.331,58487,58682
28.3512,58502,58668
28.3781,58480,58631
28.4003,58484,58616
28.4197,58501,58646
28.4399,58540,58671
28.4786,58563,58714
28.4832,58599,58745
28.5039,58653,58795
28.5258,58656,58842
28.546,58665,58859
28.5676,58679,58880
28.5982,58693,58958
28.623,58715,58980
28.6308,58735,59022
28.6511,58712,59040
28.6878,58745,59008
28.7063,58767,59039
28.7309,58765,59065
28.7482,58795,59095
28.7626,58811,59147
28.7956,58834,59176
28.811,58874,59237
28.8386,58792,59150
28.8512,58687,58971
28.8731,58548,58782
28.9009,58465,58621
28.9219,58430,58505
28.9352,58395,58482
28.9624,58421,58500
28.9983,58460,58527
29.0129,58477,58563
29.0352,58499,58608
29.0526,58549,58728
29.0745,58587,58695
29.0942,58577,58672
29.1303,58581,58648
29.1363,58564,58638
29.1659,58594,58637
29.1848,58554,58634
29.2063,58569,58644
29.2398,58579,58679
29.2408,58620,58738
29.2734,58718,58808
29.2825,58681,58868
29.3239,58745,58880
29.3397,58740,58923
29.3651,58759,58954
29.379,58807,59006
29.4009,58812,58995
29.4346,58790,58994
29.4482,58817,59028
29.4702,58812,59056
29.4901,58890,59107
29.512,58853,59136
29.5397,58873,59180
29.5675,58889,59187
29.5814,58916,59230
29.6014,58927,59258
29.6372,58948,59297
29.6432,58980,59319
29.6706,58950,59333
29.6779,58928,59280
29.7126,58797,59097
29.7359,58520,58648
29.763,58468,58502
29.7754,58439,58458
29.796,58462,58428
29.8303,58492,58482
29.8466,58536,58513
29.872,58535,58548
29.8859,58562,58561
29.9209,58568,58611
29.9289,58592,58614
29.959,58594,58579
29.9792,58583,58574
29.998,58582,58584
30.0247,58559,58563
30.032,58586,58568
30.0656,58597,58582
30.0741,58624,58643
30.1105,58635,58674
30.1324,58675,58726
30.1567,58695,58766
30.1775,58779,58857
30.2108,58743,58864
30.2127,58779,58886
30.2452,58791,58906
30.263,58796,58943
30.2827,58821,58947
30.3029,58830,58982
30.3336,58833,59015
30.3445,58852,59028
30.3719,58881,59081
30.395,58875,59102
30.4206,58906,59134
30.442,58928,59176
30.4639,58937,59210
30.4865,58965,59202
30.5108,58995,59260
30.5355,58995,59307
30.5565,59007,59346
30.5733,59048,59358
30.6083,59034,59313
30.6153,58906,59169
30.6391,58632,58734
30.6605,58536,58536
30.6776,58507,58475
30.7065,58504,58479
30.7272,58537,58502
30.7492,58568,58557
30.7759,58579,58573
30.7916,58620,58586
30.8105,58636,58634
30.8382,58652,58647
30.8525,58677,58663
30.8798,58639,58635
30.8997,58627,58612
30.9217,58614,58619
30.9492,58648,58598
30.9633,58634,58591
31.0021,58665,58650
31.0116,58710,58701
31.0409,58709,58740
31.0459,58757,58789
31.077,58723,58788
31.1174,58788,58880
31.1223,58812,58914
31.1501,58825,58895
31.1675,58839,58971
31.186,58846,58936
31.2063,58890,59017
31.234,58915,59023
31.2601,58870,59006
31.269,58891,59026
31.2958,58922,59019
31.3242,58936,59098
31.3521,58944,59131
31.365,58973,59159
31.3799,58979,59223
31.4188,58980,59174
31.4279,59006,59259
31.4483,59012,59267
31.4698,58911,59136
31.5042,58782,58956
31.52,58673,58756
31.5401,58591,58485
31.5636,58541,58468
31.5951,58576,58506
31.6088,58601,58546
31.6297,58645,58591
31.6497,58651,58657
31.6712,58719,58732
31.7118,58715,58772
31.7118,58745,58782
31.7366,58747,58768
31.7532,58722,58739
31.7829,58661,58674
31.8205,58671,58671
31.83,58694,58697
31.8555,58724,58705
31.8626,58723,58769
31.8906,58758,58790
31.9161,58789,58837
31.9354,58787,58876
31.9602,58833,58903
31.983,58846,58933
31.9968,58876,58975
32.0288,58867,59014
32.0392,58877,59040
32.069,58910,59051
32.081,58910,59076
32.1134,58904,59090
32.1313,58914,59104
32.1506,58914,59119
32.1705,58929,59158
32.2075,58965,59188
32.2125,59049,59246
32.2455,59015,59284
32.2629,59034,59304
32.3009,58979,59220
32.3029,58842,59011
32.3345,58654,58758
32.358,58553,58543
32.3728,58457,58410
32.401,58471,58374
32.4283,58464,58386
32.4443,58495,58407
32.4619,58539,58451
32.4996,58581,58530
32.5046,58579,58553
32.5292,58603,58577
32.5388,58615,58553
32.5807,58594,58571
32.5965,58572,58557
32.6159,58543,58516
32.6357,58558,58487
32.6577,58544,58516
32.6853,58577,58564
32.7094,58587,58620
32.7294,58627,58653
32.7519,58678,58687
32.7716,58699,58731
32.7965,58756,58825
32.8294,58743,58812
32.8303,58734,58869
32.8622,58803,58880
32.8841,58776,58907
32.9009,58841,58935
32.9285,58772,58949
32.9478,58835,58972
32.97,58848,59004
32.9903,58814,59029
33.0117,58882,59065
33.0467,58924,59083
33.0592,58873,59093
33.0811,58799,58998
33.1042,58664,58753
33.1152,58510,58551
33.15,58397,58288
33.166,58390,58297
33.1912,58446,58333
33.2051,58459,58353
33.2472,58482,58408
33.2472,58531,58446
33.2749,58547,58473
33.2954,58564,58545
33.3173,58570,58538
33.337,58572,58541
33.366,58531,58486
33.3866,58522,58453
33.4064,58521,58483
33.4343,58552,58508
33.4481,58562,58515
33.476,58595,58580
33.4969,58611,58628
33.5319,58650,58655
33.5319,58672,58711
33.5684,58686,58760
33.5804,58720,58815
33.6075,58718,58847
33.6309,58755,58869
33.6577,58761,58885
33.6707,58788,58925
33.692,58764,58923
33.7259,58786,58946
33.7398,58805,58957
33.7616,58816,59018
33.7831,58828,59031
33.8033,58837,59080
33.8311,58867,59085
33.8513,58845,59062
33.8727,58712,58898
33.8926,58580,58669
33.921,58457,58456
33.9342,58392,58319
33.9618,58370,58276
33.9829,58380,58309
33.9977,58438,58363
34.0314,58462,58400
34.0606,58506,58471
34.0714,58550,58552
34.088,58539,58560
34.1245,58533,58573
34.1335,58530,58536
34.1607,58500,58520
34.1843,58506,58490
34.1992,58506,58464
34.2269,58503,58491
34.2549,58532,58506
34.2655,58550,58586
34.2897,58569,58629
34.3173,58618,58668
34.33,58632,58727
34.3579,58663,58778
34.3797,58675,58799
34.3988,58720,58814
34.4205,58709,58867
34.4454,58750,58874
34.4771,58736,58896
34.4897,58757,58910
34.5047,58744,58919
34.5457,58774,58983
34.5457,58795,59003
34.5793,58787,59021
34.6019,58833,59046
34.6249,58828,59097
34.644,58836,59131
34.6627,58835,59159
34.6922,58802,59083
34.7062,58672,58906
34.7403,58415,58474
34.7536,58383,58375
34.7689,58354,58336
34.8075,58361,58348
34.8096,58388,58381
34.8376,58445,58469
34.8648,58473,58507
34.8798,58516,58579
34.9146,58543,58596
34.9342,58605,58629
34.9495,58531,58599
34.9686,58482,58561
34.9907,58489,58537
35.0185,58473,58537
35.0387,58450,58508
35.0604,58499,58552
35.0801,58501,58612
35.11,58551,58643
35.1221,58560,58690
35.1499,58607,58708
35.1663,58632,58763
35.2003,58634,58808
35.2123,58658,58861
35.2401,58657,58884
35.2614,58656,58900
35.2757,58682,58903
35.3084,58700,58913
35.3306,58689,58939
35.3494,58718,58942
35.3662,58750,58993
35.3988,58750,59017
35.4067,58772,59059
35.4368,58733,59071
35.4484,58658,58946
35.4769,58528,58744
35.499,58383,58519
35.525,58314,58352
35.5393,58276,58291
35.5647,58280,58292
35.5951,58306,58309
35.6157,58325,58372
35.6316,58415,58468
35.6509,58440,58526
35.6905,58447,58551
35.6915,58443,58577
35.7252,58435,58542
35.7406,58395,58513
35.761,58375,58481
35.7906,58368,58456
35.8029,58369,58439
35.8332,58401,58485
35.8445,58434,58523
35.878,58487,58596
35.8994,58487,58653
35.9142,58485,58677
35.9411,58500,58726
35.9562,58535,58786
35.9839,58556,58801
36.0122,58540,58812
36.0182,58565,58806
36.0458,58576,58849
36.0862,58559,58853
36.0942,58578,58886
36.1209,58623,58901
36.1383,58614,58930
36.1574,58636,58954
36.185,58644,58981
36.2105,58668,59018
36.2192,58682,59040
36.2465,58680,59056
36.287,58618,58917
36.2946,58420,58653
36.3219,58177,58219
36.3239,58120,58137
36.358,58094,58135
36.3786,58134,58174
36.4138,58159,58179
36.4138,58192,58229
36.4415,58232,58237
36.4699,58220,58260
36.4897,58257,58323
36.5138,58271,58316
36.5317,58205,58318
36.5699,58195,58245
36.5794,58216,58265
36.6052,58211,58249
36.6296,58206,58293
36.6494,58248,58299
36.6713,58264,58332
36.6923,58268,58398
36.7134,58315,58449
36.7478,58349,58477
36.7737,58341,58514
36.7848,58391,58589
36.7991,58421,58574
36.8353,58390,58616
36.8431,58444,58635
36.8656,58457,58649
36.8793,58446,58675
36.9139,58438,58717
36.9297,58491,58730
36.9512,58469,58762
36.9691,58482,58788
36.9949,58521,58810
37.0077,58548,58845
37.0388,58568,58865
37.0692,58570,58915
37.084,58584,58958
37.1088,58557,58933
37.1298,58455,58763
37.1504,58304,58534
37.17,58160,58271
37.1992,58060,58113
37.2178,58011,58040
37.2436,58067,58056
37.2535,58091,58131
37.2845,58116,58161
37.3035,58135,58219
37.3422,58161,58242
37.3529,58192,58267
37.3716,58185,58272
37.3976,58181,58246
37.418,58161,58224
37.441,58132,58204
37.4549,58136,58202
37.4771,58164,58208
37.5046,58186,58259
37.5263,58211,58288
37.5386,58235,58329
37.5664,58265,58365
37.5881,58283,58431
37.6285,58301,58450
37.6394,58319,58493
37.6563,58354,58516
37.6792,58392,58555
37.6979,58406,58570
37.7201,58408,58591
37.7538,58410,58595
37.7538,58422,58627
37.7929,58435,58657
37.7959,58440,58670
37.8302,58469,58701
37.8678,58464,58716
37.8788,58462,58740
37.9011,58506,58771
37.9071,58566,58869
37.941,58546,58887
37.9715,58544,58901
37.983,58545,58873
38.008,58450,58736
38.0181,58267,58491
38.0504,58168,58267
38.0751,58084,58112
38.1017,58027,58008
38.1156,58004,58027
38.1354,58116,58151
38.1705,58149,58159
38.1779,58174,58260
38.2048,58237,58313
38.2278,58296,58343
38.2607,58230,58400
38.2708,58233,58327
38.2945,58219,58286
38.3168,58194,58241
38.3311,58174,58207
38.3585,58239,58265
38.3785,58216,58328
38.4024,58280,58383
38.4205,58313,58408
38.4532,58316,58447
38.4622,58355,58494
38.4947,58386,58542
38.5126,58385,58557
38.5467,58399,58595
38.5528,58417,58638
38.5834,58416,58643
38.6016,58476,58684
38.6215,58466,58683
38.6525,58465,58684
38.6753,58487,58691
38.6909,58488,58739
38.7057,58512,58793
38.7427,58534,58823
38.7538,58552,58859
38.7785,58552,58875
38.7974,58533,58832
38.8173,58229,58405
38.8447,58131,58162
38.8784,58036,58024
38.8883,58011,57975
38.9141,58027,57991
38.9351,58074,58050
38.9548,58119,58097
38.99,58147,58152
38.99,58175,58180
39.0246,58199,58230
39.0407,58219,58260
39.0599,58243,58243
39.0942,58211,58196
39.1075,58178,58167
39.1295,58162,58124
39.1492,58166,58159
39.171,58184,58179
39.1912,58234,58239
39.2259,58252,58272
39.2259,58264,58339
39.2607,58328,58378
39.2891,58403,58486
39.3089,58409,58477
39.3239,58389,58518
39.3532,58405,58549
39.3648,58441,58582
39.3956,58453,58604
39.4178,58450,58633
39.435,58465,58651
39.4547,58471,58667
39.4888,58488,58678
39.4968,58478,58767
39.5278,58549,58751
39.5475,58571,58790
39.5676,58577,58856
39.5945,58607,58874
39.6197,58596,58891
39.6291,58552,58838
39.6565,58420,58644
39.6868,58312,58364
39.6983,58152,58133
39.7249,58063,57922
39.7328,58089,57929
39.7665,58112,58015
39.7969,58150,58031
39.8098,58179,58082
39.8298,58184,58122
39.8515,58221,58197
39.8724,58243,58216
39.9054,58225,58237
39.9134,58288,58216
39.9482,58207,58165
39.964,58190,58182
39.9907,58230,58185
40.0033,58225,58177
40.0363,58275,58221
40.0454,58332,58277
40.076,58334,58360
40.0945,58351,58372
40.1148,58389,58471
40.1464,58435,58485
40.1565,58434,58524
40.1881,58571,58790
40.2069,58482,58633
40.2458,58491,58627
40.2468,58508,58652
40.2755,58509,58683
40.2815,58543,58706
40.316,58559,58759
40.3392,58570,58764
40.3716,58585,58793
40.3812,58622,58819
40.4061,58622,58880
40.442,58672,58910
40.4509,58690,58976
40.4765,58707,59028
40.4904,58712,59024
40.5102,58651,58954
40.5454,58517,58731
40.5527,58358,58488
40.5833,58251,58277
40.603,58194,58127
40.6293,58184,58117
40.6491,58232,58216
40.6771,58284,58244
40.6842,58317,58322
40.712,58351,58349
40.7351,58396,58417
40.7542,58389,58427
40.7821,58396,58429
40.7961,58368,58405
40.8231,58362,58373
40.8504,58360,58343
40.8751,58306,58348
40.8872,58377,58370
40.907,58408,58418
40.9446,58434,58471
40.9551,58478,58536
40.9767,58501,58537
40.9995,58496,58628
41.0105,58541,58666
41.0536,58557,58701
41.0711,58591,58728
41.0926,58593,58723
41.1135,58618,58785
41.1317,58630,58805
41.1491,58646,58838
41.1709,58654,58840
41.1912,58683,58869
41.2186,58690,58904
41.2405,58694,58922
41.2605,58722,58966
41.282,58742,59023
41.3017,58768,59011
41.3297,58747,59102
41.3515,58660,58953
41.3713,58572,58731
41.3943,58414,58522
41.421,58350,58362
41.449,58310,58313
41.455,58300,58255
41.4828,58377,58338
41.5225,58370,58407
41.5301,58444,58437
41.5528,58475,58583
41.5732,58538,58619
41.5869,58537,58636
41.6219,58539,58665
41.629,58508,58565
41.6597,58494,58540
41.6781,58474,58508
41.6981,58522,58497
41.7347,58482,58540
41.7397,58550,58539
41.7725,58574,58668
41.7889,58608,58718
41.8087,58622,58754
41.8398,58665,58865
41.8508,58670,58895
41.8788,58684,58892
41.9008,58699,58918
41.9331,58717,58930
41.9411,58741,58945
41.9689,58724,58975
41.9767,58748,58999
42.0109,58764,59023
42.034,58777,59078
42.067,58790,59086
42.0767,58829,59128
42.098,58824,59145
42.1294,58868,59190
42.1421,58853,59223
42.1639,58810,59158
42.1845,58686,58961
42.2093,58526,58672
42.2339,58292,58347
42.2608,58335,58329
42.2752,58340,58335
42.2967,58385,58392
42.3299,58428,58448
42.3369,58443,58477
42.365,58463,58517
42.3873,58513,58561
42.3994,58521,58588
42.4293,58521,58593
42.4647,58491,58481
42.4738,58465,58526
42.495,58467,58528
42.5039,58455,58532
42.5434,58505,58575
42.5615,58510,58595
42.5882,58561,58639
42.6008,58589,58690
42.6265,58609,58739
42.6642,58650,58783
42.674,58644,58819
42.6987,58693,58890
42.7176,58681,58904
42.7333,58702,58948
42.7543,58705,58968
42.782,58727,58937
42.8023,58739,58978
42.8237,58755,58986
42.8436,58762,59042
42.8653,58771,59036
42.893,58778,59084
42.9209,58772,59133
42.9348,58836,59165
42.9545,58844,59192
42.9782,58864,59201
43.0123,58788,59117
43.0283,58654,58894
43.0529,58493,58623
43.0716,58373,58432
43.0925,58315,58314
43.1017,58294,58291
43.1411,58399,58327
43.1495,58376,58415
43.1802,58440,58460
43.2003,58434,58469
43.2195,58460,58518
43.2526,58483,58524
43.2536,58504,58547
43.2879,58449,58502
43.2952,58437,58476
43.3373,58471,58472
43.3532,58381,58439
43.3788,58444,58546
43.3921,58484,58549
43.4139,58463,58556
43.4489,58532,58633
43.4614,58553,58653
43.4834,58588,58739
43.51,58594,58757
43.5173,58608,58773
43.5539,58632,58766
43.5789,58642,58841
43.5934,58647,58889
43.6154,58685,58890
43.6454,58669,58914
43.6638,58686,58951
43.6863,58725,58963
43.6983,58713,58983
43.7258,58714,59004
43.7543,58777,59028
43.776,58756,59050
43.7959,58778,59102
43.8139,58824,59120
43.8461,58803,59193
43.8577,58827,59206
43.8818,58745,59105
43.8998,58633,58896
43.9198,58452,58615
43.9537,58356,58410
43.9621,58293,58292
43.9944,58280,58240
44.0038,58296,58269
44.0382,58320,58340
44.0542,58363,58426
44.0831,58390,58451
44.0941,58409,58487
44.1288,58436,58504
44.1446,58403,58503
44.1709,58432,58482
44.1834,58404,58436
44.2088,58375,58420
44.2385,58385,58396
44.2685,58384,58431
44.2789,58420,58507
44.2957,58464,58549
44.3308,58483,58602
44.3368,58483,58633
44.366,58521,58668
44.3858,58551,58696
44.42,58558,58723
44.4211,58581,58758
44.4538,58567,58759
44.4617,58587,58788
44.4967,58623,58774
44.5201,58635,58844
44.546,58632,58893
44.5587,58648,58880
44.5811,58666,58925
44.6142,58668,58944
44.6351,58708,58962
44.6499,58695,58973
44.6725,58717,59004
44.7067,58740,59040
44.7186,58748,59082
44.7404,58804,59151
44.7624,58803,59172
44.7819,58751,59172
44.812,58705,59046
44.816,58533,58789
44.8511,58381,58562
44.8743,58283,58360
44.9061,58260,58265
44.9207,58216,58240
44.9469,58266,58313
44.9548,58330,58375
44.9805,58369,58447
45.0109,58396,58478
45.0273,58414,58487
45.0458,58451,58511
45.0666,58410,58491
45.0864,58402,58455
45.1154,58389,58413
45.1408,58371,58370
45.1698,58350,58367
45.1878,58364,58363
45.2059,58384,58450
45.2225,58401,58520
45.243,58461,58538
45.2781,58464,58576
45.2887,58489,58617
45.3158,58530,58659
45.3373,58516,58676
45.3554,58523,58694
45.3867,58541,58727
45.4,58545,58729
45.421,58556,58757
45.4485,58557,58788
45.4623,58583,58798
45.4943,58600,58833
45.5099,58605,58838
45.5318,58606,58836
45.5516,58632,58883
45.5735,58631,58932
45.5982,58657,58944
45.6233,58695,58962
45.643,58667,58973
45.6627,58521,58823
45.6847,58411,58574
45.7125,58268,58373
45.7343,58187,58225
45.7531,58177,58154
45.7678,58217,58165
45.8078,58214,58226
45.8163,58248,58264
45.8417,58283,58339
45.8594,58342,58446
45.8825,58359,58469
45.9058,58360,58458
45.9352,58338,58407
45.9412,58335,58392
45.9699,58301,58365
45.997,58307,58337
46.0168,58295,58362
46.0386,58311,58369
46.0597,58323,58424
46.0804,58363,58468
46.1071,58430,58546
46.1144,58416,58590
46.1488,58450,58611
46.156,58487,58646
46.1929,58498,58693
46.2225,58497,58683
46.2329,58498,58716
46.2534,58504,58718
46.2824,58509,58740
46.3016,58518,58748
46.3234,58597,58809
46.3436,58533,58824
46.3659,58567,58849
46.3919,58569,58853
46.4159,58630,58878
46.427,58640,58929
46.4547,58611,58964
46.4826,58630,58982
46.5091,58662,58990
46.5171,58609,58947
46.5423,58475,58753
46.5696,58220,58241
46.5873,58111,58098
46.6075,58072,58058
46.6291,58085,58066
46.6487,58089,58074
46.6765,58150,58142
46.6907,58150,58187
46.7204,58200,58225
46.7324,58210,58246
46.7672,58203,58285
46.7833,58222,58260
46.809,58199,58250
46.8303,58174,58182
46.8615,58172,58185
46.8646,58160,58164
46.8951,58204,58236
46.9061,58232,58221
46.9387,58248,58296
46.9482,58283,58339
46.9855,58305,58367
47.0052,58383,58453
47.0247,58354,58499
47.0515,58370,58505
47.0786,58367,58527
47.0873,58392,58560
47.114,58385,58547
47.1427,58407,58591
47.1626,58422,58600
47.1846,58422,58628
47.1982,58432,58642
47.2453,58428,58686
47.2503,58471,58705
47.2789,58487,58761
47.2904,58502,58772
47.3114,58520,58812
47.337,58540,58834
47.3511,58545,58882
47.3844,58586,58907
47.4067,58553,58879
47.4206,58482,58792
47.4474,58317,58556
47.4626,58070,58102
47.4899,57985,58006
47.5178,58003,57963
47.5318,58020,57951
47.5515,58030,58014
47.5886,58080,58071
47.5936,58079,58083
47.6236,58104,58112
47.6456,58119,58149
47.6637,58118,58153
47.6905,58168,58136
47.7113,58080,58103
47.733,58082,58089
47.7541,58104,58081
47.7672,58131,58109
47.802,58118,58113
47.8223,58145,58177
47.8373,58180,58212
47.8574,58184,58269
47.879,58210,58333
47.9087,58230,58355
47.9265,58265,58390
47.9543,58289,58448
47.9681,58322,58433
47.99,58332,58461
48.0248,58341,58490
48.0375,58348,58514
48.0594,58332,58510
48.0792,58333,58549
48.1019,58365,58565
48.1215,58379,58623
48.1529,58414,58620
48.17,58421,58665
48.1926,58415,58658
48.2199,58414,58688
48.2482,58440,58735
48.2532,58476,58797
48.2799,58494,58799
48.3046,58519,58854
48.3235,58498,58827
48.3513,58409,58720
48.3573,58155,58257
48.3921,57977,58046
48.4078,57932,57924
48.4386,57991,57967
48.4563,57987,57983
48.4763,58035,58019
48.5029,58021,58109
48.5269,58069,58131
48.5383,58098,58150
48.5659,58099,58139
48.5932,58134,58187
48.6081,58073,58134
48.6349,58091,58116
48.6496,58074,58102
48.6916,58081,58095
48.6976,58076,58091
48.7234,58088,58129
48.7413,58120,58144
48.7609,58157,58190
48.7862,58172,58251
48.8096,58196,58273
48.8302,58209,58316
48.8533,58236,58357
48.8862,58268,58371
48.8997,58281,58402
48.9237,58259,58407
48.9341,58256,58435
48.9624,58263,58437
48.9899,58293,58475
49.015,58294,58512
49.024,58286,58522
49.0496,58365,58565
49.0751,58337,58588
49.1032,58375,58634
49.1143,58390,58643
49.1386,58413,58688
49.1642,58424,58721
49.1839,58421,58741
49.2052,58351,58665
49.225,58236,58461
49.2491,58070,58217
49.2857,57985,58033
49.3008,57894,57884
49.3175,57949,57911
49.3382,57979,57966
49.3602,57997,58026
49.3712,58041,58059
49.4061,58063,58092
49.4219,58089,58151
49.4472,58082,58182
49.4691,58082,58163
49.4893,58058,58125
49.5209,58023,58058
49.531,58044,58063
49.5584,58037,58089
49.5726,58056,58112
49.6134,58089,58163
49.6144,58113,58226
49.648,58121,58245
49.6668,58177,58308
49.6874,58187,58341
49.718,58203,58373
49.7319,58261,58426
49.7539,58201,58389
49.774,58247,58458
49.7955,58238,58467
49.8232,58285,58489
49.8509,58293,58498
49.866,58289,58560
49.8859,58276,58522
49.9192,58316,58563
49.9266,58375,58593
49.9565,58355,58630
49.9614,58343,58663
49.997,58393,58685
50.0192,58390,58775
50.0445,58421,58784
50.0583,58443,58798
50.0807,58390,58806
50.1222,58330,58673
50.1282,58142,58387
50.1555,57992,58128
50.1627,57896,58002
50.1939,57841,57799
50.2045,57874,57864
50.2401,57911,57913
50.246,57937,57990
50.2821,57961,58025
50.3046,57987,58018
50.3348,58018,58057
50.3434,57998,58054
50.3728,57987,58049
50.3918,57981,58026
50.4279,57952,57988
50.4354,57933,57986
50.4618,57977,57984
50.483,58006,58030
50.5019,58020,58078
50.5348,58051,58114
50.5447,58067,58161
50.5725,58100,58210
50.5908,58119,58236
50.617,58155,58282
50.6281,58166,58297
50.6608,58169,58316
50.6778,58193,58349
50.7051,58199,58361
50.725,58202,58411
50.7389,58213,58427
50.7688,58223,58442
50.789,58237,58451
50.8092,58237,58470
50.8291,58264,58519
50.8512,58273,58557
50.8787,58293,58575
50.9008,58330,58626
50.9129,58343,58631
50.9414,58335,58658
50.9637,58362,58707
50.991,58381,58716
51.0209,58400,58781
51.0308,58409,58792
51.0536,58372,58774
51.0872,58267,58603
51.0969,57957,58083
51.1184,57851,57900
51.1357,57808,57826
51.1625,57835,57820
51.1895,57858,57881
51.2133,57914,57913
51.2327,57930,57942
51.2473,57960,57978
51.286,57982,58027
51.2956,57980,58057
51.3165,57964,58041
51.3384,57952,57967
51.3625,57920,57961
51.399,57918,57949
51.4101,57906,57940
51.4343,57966,57952
51.4519,57949,58003
51.4727,58001,58056
51.4898,58024,58091
51.5101,58084,58135
51.5375,58062,58162
51.5612,58086,58191
51.579,58120,58280
51.6008,58152,58295
51.6207,58154,58288
51.6507,58155,58302
51.6632,58161,58341
51.6956,58150,58394
51.7133,58193,58365
51.7332,58193,58411
51.766,58204,58412
51.767,58213,58467
51.8049,58222,58477
51.8155,58257,58543
51.8433,58293,58554
51.8708,58300,58570
51.8903,58307,58570
51.9132,58327,58624
51.9354,58354,58656
51.9543,58349,58675
51.9822,58355,58685
52.0055,58337,58692
52.0266,58110,58334
52.0423,57954,58069
52.0733,57857,57905
52.0864,57832,57831
52.1078,57821,57818
52.1279,57852,57844
52.1488,57892,57907
52.1773,57924,57954
52.1983,57929,57994
52.219,57964,58022
52.2387,58004,58038
52.2606,57978,58064
52.2874,57954,58007
52.3012,57909,57972
52.3302,57891,57944
52.3508,57902,57953
52.3718,57909,57955
52.4027,57925,57991
52.4127,57970,58048
52.4424,58013,58085
52.4543,58064,58160
52.4832,58071,58184
52.5104,58120,58217
52.5248,58120,58244
52.5555,58116,58279
52.5656,58119,58286
52.5955,58130,58304
52.6005,58122,58302
52.6381,58140,58358
52.6578,58151,58371
52.6849,58172,58390
52.7042,58196,58394
52.7252,58216,58455
52.7667,58213,58459
52.7739,58230,58485
52.7916,58238,58533
52.8016,58270,58561
52.8404,58275,58596
52.8434,58291,58617
52.8915,58295,58628
52.9064,58235,58556
52.924,57937,58087
52.948,57820,57872
52.9667,57765,57767
52.9832,57737,57730
53.0239,57770,57752
53.0239,57798,57759
53.0565,57815,57825
53.0801,57848,57855
53.0998,57865,57872
53.1217,57888,57927
53.1416,57905,57945
53.1764,57912,57895
53.1842,57834,57857
53.2102,57832,57829
53.234,57843,57817
53.2525,57872,57837
53.2766,57865,57848
53.2943,57904,57922
53.3363,57908,57958
53.3401,57952,58026
53.3524,57991,58068
53.3877,57976,58085
53.4069,58037,58162
53.4279,58074,58150
53.4693,58043,58176
53.4791,58069,58172
53.5037,58079,58213
53.5288,58072,58227
53.5407,58080,58227
53.5651,58095,58257
53.58,58107,58292
53.5998,58128,58308
53.6297,58161,58351
53.6419,58150,58377
53.6739,58173,58442
53.6928,58180,58477
53.7129,58208,58455
53.7569,58227,58446
53.7662,58245,58528
53.7836,58276,58562
53.7952,58247,58581
53.8268,58220,58497
53.8363,58047,58297
53.8779,57897,58042
53.8917,57777,57824
53.9226,57720,57714
53.9396,57720,57648
53.9582,57725,57679
53.974,57762,57723
54.0009,57766,57744
54.0104,57791,57790
54.0445,57805,57808
54.073,57842,57827
54.0873,57838,57846
54.1072,57835,57839
54.1437,57798,57815
54.1487,57808,57781
54.1777,57812,57786
54.1915,57818,57810
54.2255,57852,57856
54.2411,57872,57888
54.2745,57893,57942
54.2806,57961,58008
54.3084,57962,58080
54.3316,57987,58102
54.3507,58007,58114
54.3784,58010,58146
54.3925,58036,58173
54.4261,58045,58191
54.4399,58035,58221
54.4618,58050,58240
54.4817,58081,58239
54.5044,58091,58317
54.5234,58120,58357
54.5534,58115,58385
54.5657,58151,58419
54.5944,58156,58447
54.6214,58196,58476
54.6414,58207,58518
54.6634,58224,58541
54.6771,58228,58571
54.7141,58258,58604
54.725,58251,58642
54.7529,58312,58685
54.7739,58319,58743
54.7872,58317,58751
54.8182,58230,58639
54.8292,58109,58442
54.8599,57984,58246
54.8712,57879,58088
54.9047,57827,57985
54.9346,57812,57993
54.9477,57838,58015
54.9683,57883,58036
54.9964,57894,58097
55.0164,57902,58137
55.0303,57904,58135
55.0581,57900,58170
55.0807,57933,58150
55.1033,57945,58132
55.1142,57892,58107
55.1459,57934,58098
55.1559,57914,58123
55.1901,57929,58159
55.2134,58013,58214
55.2328,57964,58270
55.2529,58018,58301
55.2836,58061,58319
55.2951,58076,58406
55.3241,58069,58420
55.3291,58104,58428
55.3709,58101,58435
55.3868,58126,58475
55.4063,58123,58490
55.426,58197,58542
55.4662,58155,58612
55.4682,58176,58569
55.5013,58198,58645
55.519,58210,58663
55.5382,58230,58702
55.5659,58261,58751
55.5857,58266,58781
55.6075,58277,58776
55.6274,58296,58805
55.6601,58313,58896
55.6704,58354,58913
55.6975,58357,58922
55.7185,58364,58971
55.7326,58358,58988
55.7663,58352,58979
55.7802,58269,58870
55.8021,58155,58681
55.8219,58064,58500
55.8438,57983,58421
55.8828,57965,58334
55.8948,58002,58386
55.9205,58009,58410
55.937,58030,58446
55.955,58047,58489
55.9827,58059,58514
56.0107,58093,58553
56.028,58084,58539
56.045,58098,58521
56.0649,58067,58487
56.0958,58056,58474
56.1073,58082,58485
56.1385,58072,58492
56.1587,58099,58541
56.1792,58141,58571
56.1995,58177,58618
56.2258,58160,58649
56.2369,58193,58706
56.2672,58223,58724
56.2883,58229,58762
56.3087,58265,58778
56.3366,58271,58811
56.3575,58271,58801
56.3767,58282,58839
56.3991,58311,58867
56.4203,58330,58902
56.4521,58348,58924
56.4614,58348,58982
56.489,58370,58992
56.5028,58379,59013
56.5401,58386,59051
56.5522,58405,59081
56.5762,58443,59110
56.5951,58451,59150
56.6145,58441,59202
56.6413,58488,59209
56.6654,58491,59264
56.6783,58498,59271
56.7059,58455,59234
56.7183,58377,59114
56.7576,58271,58905
56.7666,58133,58726
56.794,58036,58502
56.8176,58032,58505
56.8366,58036,58552
56.861,58061,58554
56.8786,58123,58569
56.9121,58078,58576
56.9259,58100,58592
56.9478,58112,58619
56.9676,58137,58588
56.9991,58163,58560
57.0101,58114,58551
57.0394,58101,58536
57.0445,58153,58556
57.086,58118,58570
57.1008,58146,58606
57.1274,58221,58615
57.1421,58206,58649
57.1808,58213,58689
57.1902,58285,58756
57.216,58226,58759
57.2337,58278,58828
57.2715,58346,58856
57.2735,58320,58836
57.3023,58316,58913
57.3082,58334,58893
57.3499,58359,58906
57.3659,58381,58942
57.3853,58379,58958
57.4051,58387,58999
57.4411,58426,59029
57.4471,58420,59054
57.4791,58484,59096
57.4984,58472,59141
57.5304,58485,59165
57.5374,58501,59176
57.5675,58514,59195
57.5725,58515,59233
57.6143,58536,59243
57.6303,58569,59294
57.6563,58560,59311
57.6768,58593,59351
57.6958,58573,59326
57.723,58483,59203
57.7462,58345,58970
57.7662,58224,58782
57.7805,58173,58639
57.8019,58121,58558
57.8383,58138,58537
57.8499,58144,58566
57.872,58164,58588
57.8992,58205,58613
57.919,58210,58623
57.9407,58252,58644
57.9628,58223,58627
57.9978,58216,58632
58.007,58225,58589
58.0308,58239,58556
58.0466,58231,58543
58.0659,58237,58565
58.0937,58242,58565
58.1134,58271,58613
58.1352,58293,58636
58.1551,58346,58711
58.1931,58387,58739
58.1987,58382,58779
58.2277,58393,58816
58.2475,58411,58842
58.2732,58436,58859
58.3004,58429,58882
58.3179,58472,58871
58.3447,58478,58881
58.3567,58510,58907
58.3805,58510,58971
58.3984,58534,59011
58.4263,58539,59048
58.4421,58565,59056
58.4676,58587,59072
58.4892,58609,59106
58.5098,58603,59162
58.5375,58623,59168
58.5588,58646,59202
58.5786,58671,59219
58.5925,58688,59273
58.6336,58722,59290
58.6346,58759,59331
58.6742,58721,59357
58.6897,58725,59351
58.7128,58628,59229
58.7249,58489,59027
58.7556,58377,58857
58.774,58317,58646
58.8008,58271,58559
58.8081,58274,58548
58.8401,58360,58665
58.8642,58352,58647
58.8912,58385,58691
58.906,58407,58703
58.9258,58417,58736
58.9619,58415,58720
58.9679,58405,58725
58.9985,58388,58681
59.0169,58387,58665
59.0382,58375,58610
59.0648,58419,58649
59.0856,58395,58653
59.1006,58450,58704
59.1202,58489,58719
59.1515,58484,58759
59.1784,58531,58795
59.192,58556,58842
59.2116,58571,58866
59.2393,58583,58923
59.2591,58615,58925
59.2811,58637,58953
59.305,58655,58987
59.3152,58645,59002
59.3498,58672,59008
59.3714,58685,59023
59.3911,58679,59047
59.412,58705,59093
59.4361,58723,59090
59.4627,58723,59135
59.4814,58733,59159
59.5001,58766,59205
59.5323,58805,59234
59.5443,58815,59296
59.5673,58833,59326
59.5789,58828,59335
59.6143,58788,59260
59.6342,58671,59062
59.6572,58549,58841
59.6773,58422,58676
59.6971,58391,58585
59.7257,58362,58559
59.7436,58427,58587
59.7666,58456,58651
59.7737,58475,58695
59.8083,58516,58714
59.8312,58534,58775
59.8595,58548,58762
59.8705,58539,58751
59.8963,58512,58720
59.9218,58513,58699
59.9423,58494,58664
59.9633,58502,58654
59.9824,58504,58691
60.01,58541,58717
60.0299,58565,58759
60.0517,58591,58807
60.072,58609,58832
60.0935,58661,58883
60.121,58655,58925
60.1439,58683,58950
60.1571,58708,58988
60.1768,58700,58998
60.209,58721,59030
60.2285,58744,59064
60.2464,58734,59071
60.2664,58762,59078
60.2995,58795,59103
60.3081,58770,59127
60.339,58787,59156
60.3431,58831,59184
60.3827,58817,59213
60.4075,58825,59235
60.427,58852,59266
60.4478,58875,59356
60.4768,58888,59364
60.489,58908,59382
60.5115,58944,59419
60.5379,58879,59384
60.552,58770,59179
60.5796,58605,58950
60.602,58521,58761
60.614,58485,58605
60.6487,58456,58580
60.67,58459,58635
60.6909,58523,58662
60.7035,58546,58698
60.7382,58570,58735
60.7562,58573,58745
60.7745,58536,58759
60.8018,58571,58759
60.8197,58554,58711
60.8505,58507,58685
60.8636,58538,58677
60.8906,58562,58659
60.906,58558,58685
60.9257,58576,58724
60.9577,58574,58798
60.9677,58651,58815
60.9978,58628,58856
61.0177,58645,58884
61.0438,58696,58891
61.0657,58697,58948
61.0796,58719,58954
61.1071,58725,58956
61.1283,58753,59051
61.149,58768,59031
61.1766,58757,59081
61.195,58770,59094
61.2115,58788,59111
61.2505,58792,59128
61.2525,58815,59172
61.2871,58825,59194
61.303,58828,59219
61.3226,58857,59275
61.3586,58875,59286
61.3706,58897,59312
61.3952,58921,59379
61.4144,58911,59369
61.434,58948,59409
61.4614,58935,59440
61.4756,58892,59387
61.5031,58787,59204
61.5241,58661,59005
61.5576,58552,58794
61.5715,58446,58562
61.5929,58454,58599
61.6141,58472,58645
61.634,58516,58671
61.6618,58539,58700
61.6757,58573,58733
61.7027,58572,58782
61.7244,58587,58783
61.7395,58591,58788
61.7671,58576,58766
61.7868,58537,58681
61.8086,58536,58692
61.8288,58534,58671
61.8604,58577,58706
61.8705,58578,58727
61.9005,58587,58759
61.9061,58609,58814
61.9467,58653,58831
61.9627,58653,58870
61.9914,58676,58913
62.003,58734,58976
62.0376,58720,58979
62.0503,58733,59014
62.0781,58737,59024
62.1002,58753,59041
62.1144,58754,59043
62.142,58774,59077
62.1697,58773,59101
62.1856,58799,59124
62.2044,58812,59110
62.2324,58820,59158
62.2526,58858,59196
62.2729,58841,59235
62.2938,58866,59272
62.3288,58876,59312
62.3288,58893,59327
62.3626,58902,59351
62.3861,58850,59253
62.4049,58727,59082
62.4418,58603,58868
62.4577,58490,58693
62.4771,58448,58544
62.4975,58439,58581
62.517,58497,58638
62.5359,58524,58672
62.5714,58520,58702
62.5788,58564,58738
62.6065,58590,58780
62.6233,58593,58803
62.642,58587,58790
62.6732,58594,58745
62.693,58522,58692
62.7113,58486,58659
62.7312,58547,58676
62.7535,58557,58719
62.7807,58587,58722
62.8088,58580,58758
62.8148,58610,58817
62.8439,58631,58892
62.8715,58667,58895
62.8892,58668,58920
62.9123,58675,58946
62.9352,58696,58963
62.9683,58689,59026
62.9762,58709,59050
63.002,58723,59029
63.0163,58739,59040
63.0379,58730,59059
63.0656,58745,59075
63.0864,58752,59101
63.1071,58767,59127
63.127,58774,59155
63.1518,58818,59179
63.1765,58826,59210
63.2034,58809,59188
63.2111,58672,59053
63.2394,58535,58818
63.2669,58425,58625
63.2871,58348,58488
63.3085,58326,58449
63.3226,58327,58424
63.363,58347,58482
63.3704,58416,58523
63.3952,58438,58557
63.4139,58439,58582
63.4336,58459,58585
63.4613,58455,58617
63.4811,58432,58583
63.5045,58408,58556
63.5228,58379,58545
63.5518,58381,58521
63.5794,58381,58511
63.5922,58399,58537
63.6141,58437,58576
63.6452,58472,58633
63.6483,58474,58673
63.6838,58524,58705
63.6898,58528,58733
63.7239,58540,58757
63.7475,58568,58772
63.776,58556,58783
63.7871,58561,58790
63.8113,58570,58830
63.8384,58576,58845
63.8573,58577,58873
63.8823,58589,58888
63.8987,58627,58903
63.9189,58620,58940
63.9547,58639,58956
63.9671,58633,58972
63.9953,58639,58991
64.01,58683,59038
64.0298,58675,59067
64.0657,58685,59096
64.0717,58617,59029
64.1024,58497,58779
64.107,58334,58561
64.1483,58224,58362
64.164,58180,58250
64.1906,58160,58186
64.2048,58175,58218
64.2251,58195,58239
64.2529,58223,58288
64.2727,58240,58309
64.3006,58220,58287
64.3144,58227,58350
64.3515,58241,58317
64.3565,58232,58315
64.3862,58225,58288
64.4071,58191,58266
64.4292,58186,58254
64.4664,58201,58266
64.4785,58266,58302
64.4962,58273,58318
64.5163,58302,58412
64.5383,58338,58436
64.56,58373,58475
64.5793,58387,58487
64.6048,58362,58540
64.6301,58401,58556
64.6411,58370,58564
64.6688,58345,58599
64.6977,58403,58566
64.7183,58432,58628
64.74,58397,58684
64.7529,58425,58668
64.7939,58475,58721
64.7939,58487,58748
64.8286,58500,58749
64.8448,58481,58773
64.8639,58502,58834
64.8917,58523,58818
64.9196,58548,58818
64.9336,58569,58892
64.9533,58558,58910
64.9893,58373,58607
64.9953,58260,58440
65.025,58131,58229
65.0437,58058,58099
65.0653,58054,58063
65.0944,58048,58077
65.1156,58086,58130
65.1351,58110,58143
65.1532,58114,58184
65.1848,58119,58180
65.1967,58151,58200
65.2228,58130,58208
65.2407,58149,58174
65.2603,58128,58163
65.2867,58119,58151
65.3166,58107,58120
65.3216,58112,58158
65.3514,58134,58171
65.3769,58165,58226
65.4063,58206,58272
65.4124,58253,58315
65.4406,58257,58368
65.4672,58286,58386
65.4814,58272,58405
65.51,58308,58429
65.5227,58300,58449
65.5446,58298,58468
65.5723,58321,58479
65.5925,58330,58504
65.6139,58323,58504
65.6338,58344,58543
65.6709,58316,58525
65.6834,58362,58572
65.7033,58378,58601
65.7251,58369,58622
65.7449,58409,58672
65.7779,58448,58705
65.7869,58426,58738
65.8145,58424,58725
65.8374,58347,58632
65.8571,58229,58420
65.8851,58002,58061
65.9079,57964,58000
65.9264,57960,57975
65.9475,57989,58014
65.9843,58040,58068
65.9883,58053,58099
66.0162,58097,58151
66.0305,58132,58199
66.0504,58148,58200
66.0851,58147,58249
66.0925,58092,58189
66.1255,58075,58150
66.134,58068,58138
66.169,58091,58145
66.1893,58107,58142
66.2124,58150,58178
66.2247,58167,58231
66.2618,58154,58271
66.275,58192,58296
66.3076,58246,58338
66.3148,58211,58377
66.3435,58244,58411
66.3651,58227,58427
66.3952,58248,58483
66.4122,58247,58489
66.4311,58306,58495
66.4568,58309,58497
66.481,58305,58536
66.5078,58311,58543
66.5261,58314,58592
66.5411,58336,58612
66.5735,58364,58678
66.5873,58359,58683
66.6081,58415,58750
66.6291,58415,58735
66.6528,58393,58746
66.6765,58338,58625
66.6903,58174,58409
66.7322,58069,58172
66.7382,57913,57959
66.763,57840,57832
66.7733,57872,57817
66.8076,57883,57846
66.8152,57888,57919
66.8477,57908,57895
66.878,57904,57896
66.8917,57936,57950
66.9266,57936,57943
66.9375,57941,57939
66.9542,57915,57933
66.975,57935,57918
67.0194,57914,57879
67.0235,57918,57886
67.0551,57941,57937
67.0733,57972,57977
67.0861,57989,58015
67.1104,58034,58076
67.1517,58045,58110
67.1575,58082,58152
67.1785,58083,58161
67.2063,58097,58210
67.2222,58131,58232
67.2393,58142,58275
67.28,58137,58287
67.28,58150,58320
67.3156,58167,58324
67.3216,58183,58367
67.3538,58201,58386
67.3877,58206,58426
67.398,58213,58426
67.4278,58217,58442
67.4435,58244,58489
67.4678,58289,58554
67.4847,58298,58579
67.5234,58335,58610
67.5234,58342,58647
67.5547,58351,58654
67.5646,58321,58609
67.5962,58173,58422
67.617,58003,58187
67.6544,57884,57980
67.6554,57822,57846
67.69,57799,57790
67.706,57872,57822
67.7251,57909,57896
67.7486,57902,57923
67.7758,57938,57969
67.8027,57952,58009
67.8408,57984,58048
67.8479,57958,58033
67.8705,57953,58034
67.8855,57943,57997
67.9097,57919,57959
67.9337,57944,57952
67.9612,57949,57967
67.9708,57962,57999
67.9901,58001,58049
68.0304,58007,58102
68.0304,58054,58153
68.0596,58052,58191
68.0874,58099,58232
68.1001,58112,58244
68.1207,58112,58258
68.1638,58152,58291
68.1693,58125,58317
68.1969,58136,58303
68.2111,58151,58349
68.2333,58138,58392
68.2609,58186,58378
68.2729,58174,58408
68.304,58177,58424
68.3238,58240,58466
68.3569,58240,58507
68.365,58256,58548
68.3959,58321,58574
68.411,58234,58523
68.4319,58082,58326
68.4552,57987,58071
68.4748,57834,57910
68.4951,57810,57776
68.5167,57784,57774
68.5595,57841,57798
68.5737,57883,57858
68.592,57886,57880
68.618,57920,58000
68.6328,57967,58049
68.6546,57962,58026
68.6744,57963,58033
68.7033,57942,58021
68.712,57952,57941
68.7421,57920,57919
68.7521,57927,57949
68.7869,57936,57986
68.8082,57963,58000
68.8286,58012,58110
68.8499,58031,58138
68.8841,58069,58194
68.8841,58116,58235
68.9178,58098,58258
68.9404,58123,58282
68.9603,58136,58317
68.99,58155,58316
69.012,58152,58352
69.0305,58197,58366
69.0472,58166,58403
69.0793,58201,58433
69.0918,58215,58470
69.1138,58236,58493
69.1338,58258,58540
69.1754,58289,58553
69.1754,58283,58584
69.2042,58294,58623
69.2239,58316,58658
69.2459,58350,58703
69.2827,58331,58724
69.2867,58193,58467
69.3244,58016,58233
69.3284,57860,58005
69.3558,57782,57854
69.3848,57753,57795
69.4004,57799,57808
69.4194,57815,57834
69.44,57846,57873
69.4782,57851,57888
69.4881,57875,57910
69.5129,57916,57978
69.5318,57874,57986
69.5513,57902,57992
69.5789,57886,57972
69.608,57869,57967
69.6131,57884,57948
69.6409,57895,57953
69.664,57900,57987
69.6903,57922,58002
69.713,57959,58052
69.7308,57998,58101
69.7517,58026,58176
69.7793,58068,58243
69.8024,58085,58277
69.821,58106,58319
69.8283,58106,58331
69.869,58142,58358
69.8775,58124,58395
69.91,58150,58421
69.9192,58175,58440
69.9535,58183,58464
69.9748,58218,58511
69.9946,58230,58578
70.0161,58241,58610
70.0466,58287,58641
70.0641,58285,58683
70.0849,58289,58714
70.1066,58307,58765
70.1206,58332,58808
70.1485,58380,58793
70.1682,58371,58930
70.19,58422,58899
70.2135,58272,58741
70.2377,58138,58559
70.2585,58044,58324
70.2825,57895,58126
70.2935,57848,58024
70.3285,57895,58064
70.3498,57873,58075
70.368,57905,58083
70.3847,57955,58107
70.4185,57978,58192
70.4259,58034,58255
70.4593,58028,58268
70.4763,58012,58278
70.5117,57992,58227
70.5203,58002,58209
70.5476,57977,58248
70.5506,57978,58202
70.5924,58000,58240
70.6142,58024,58244
70.6351,58053,58324
70.6553,58116,58401
70.6779,58147,58456
70.7141,58165,58509
70.7262,58197,58531
70.7486,58206,58585
70.7653,58230,58617
70.7873,58250,58656
70.8071,58263,58670
70.8349,58264,58717
70.8557,58287,58710
70.8765,58308,58763
70.8982,58316,58793
70.9203,58362,58824
70.946,58374,58880
70.9678,58391,58888
70.9816,58389,58920
71.0015,58408,58971
71.0336,58430,59006
71.0436,58472,59059
71.0736,58483,59092
71.0931,58506,59123
71.127,58392,58947
71.127,58248,58784
71.1599,58158,58600
71.169,58081,58464
71.2151,58029,58402
71.2317,58027,58396
71.2455,58069,58405
71.2654,58094,58469
71.3055,58132,58543
71.3151,58161,58564
71.338,58219,58664
71.3566,58232,58673
71.3967,58232,58679
71.4038,58224,58628
71.4305,58194,58620
71.4325,58169,58597
71.4667,58147,58585
71.4955,58187,58621
71.5153,58219,58644
71.5372,58243,58706
71.551,58314,58809
71.5791,58295,58835
71.5987,58351,58873
71.6207,58376,58924
71.6407,58388,58942
71.6791,58428,58996
71.6827,58440,59022
71.7157,58450,59044
71.7335,58492,59053
71.7524,58465,59093
71.7865,58467,59112
71.7865,58470,59163
71.8238,58505,59196
71.8428,58575,59208
71.8638,58542,59245
71.8936,58591,59308
71.9047,58617,59318
71.9337,58609,59349
71.9537,58610,59391
71.9738,58600,59340
71.9956,58445,59118
72.0154,58202,58695
72.0443,58117,58588
72.057,58112,58566
72.0961,58105,58521
72.0991,58145,58573
72.1308,58151,58664
72.1551,58237,58661
72.1691,58233,58706
72.1968,58264,58733
72.226,58282,58747
72.2309,58271,58730
72.2597,58192,58737
72.2872,58252,58690
72.3113,58234,58648
72.3217,58247,58656
72.3418,58279,58757
72.3787,58297,58773
72.3907,58312,58798
72.4144,58349,58849
72.4262,58381,58899
72.4602,58407,58933
72.4816,58414,58988
72.5014,58433,59035
72.5233,58483,59060
72.5525,58486,59092
72.5721,58503,59124
72.5949,58512,59147
72.606,58521,59143
72.6409,58538,59183
72.6568,58550,59201
72.6759,58584,59229
72.6959,58589,59274
72.7177,58603,59327
72.7455,58625,59349
72.7675,58663,59401
72.7796,58662,59429
72.8163,58708,59447
72.8359,58669,59409
72.8719,58547,59270
72.8855,58412,59035
72.8975,58280,58854
72.9185,58174,58628
72.9389,58144,58603
72.9607,58177,58608
72.9957,58229,58665
73.0085,58235,58707
73.0301,58258,58719
73.05,58301,58781
73.0719,58335,58815
73.0916,58349,58824
73.1207,58334,58810
73.1411,58298,58779
73.1616,58278,58716
73.1957,58274,58738
73.2032,58280,58756
73.2293,58315,58783
73.2514,58335,58805
73.2664,58373,58854
73.294,58400,58919
73.3177,58443,58936
73.3285,58463,58991
73.3592,58490,59013
73.3859,58516,59067
73.4052,58523,59117
73.4306,58554,59125
73.4398,58558,59149
73.4693,58550,59178
73.4954,58569,59218
73.5224,58587,59210
73.5356,58602,59243
73.5569,58629,59270
73.5801,58615,59307
73.6097,58669,59331
73.62,58659,59403
73.6455,58662,59431
73.6706,58717,59476
73.69,58738,59501
73.7097,58715,59472
73.7315,58625,59347
73.7593,58492,59117
73.7791,58359,58937
73.8012,58270,58843
73.8208,58216,58691
73.8579,58242,58663
73.863,58287,58720
73.8935,58331,58773
73.9132,58355,58834
73.9316,58364,58911
73.9392,58423,58897
73.9799,58437,58929
73.9966,58417,58915
74.0179,58412,58875
74.044,58347,58846
74.0718,58318,58737
74.0861,58356,58787
74.1055,58370,58844
74.1445,58373,58842
74.1475,58406,58890
74.1762,58445,58978
74.1983,58466,58999
74.2176,58486,59011
74.245,58504,59046
74.2662,58515,59073
74.2861,58570,59133
74.3002,58529,59129
74.3339,58551,59141
74.3424,58565,59170
74.3767,58582,59208
74.3925,58598,59190
74.4129,58626,59229
74.433,58632,59271
74.461,58633,59300
74.4815,58640,59313
74.5033,58647,59308
74.5384,58411,58930
74.5461,58293,58761
74.5731,58195,58608
74.5937,58167,58516
74.6136,58164,58491
74.6477,58184,58510
74.6477,58212,58550
74.6872,58252,58611
74.7028,58275,58630
74.7236,58314,58673
74.7486,58338,58718
74.759,58323,58692
74.7927,58326,58645
74.8077,58290,58631
74.8578,58270,58600
74.8638,58267,58595
74.8801,58297,58622
74.9023,58297,58633
74.9294,58342,58684
74.9468,58369,58745
74.9613,58437,58818
75.005,58407,58869
75.009,58453,58900
75.0338,58462,58937
75.0561,58470,58932
75.0719,58491,58956
75.0999,58519,58974
75.1193,58507,59000
75.1412,58535,59010
75.1666,58529,59024
75.1967,58548,59035
75.2138,58521,59070
75.2245,58573,59154
75.2529,58600,59149
75.259,58600,59180
75.2973,58620,59174
75.3289,58563,59101
75.3419,58423,58908
75.357,58283,58652
75.3895,58159,58457
75.3974,58095,58326
75.4302,58081,58263
75.4479,58111,58325
75.4869,58138,58355
75.488,58165,58386
75.5189,58188,58408
75.539,58220,58439
75.5578,58236,58476
75.5855,58238,58450
75.6054,58191,58468
75.6212,58218,58401
75.6471,58220,58351
75.6692,58203,58395
75.6912,58257,58438
75.7171,58249,58422
75.7308,58349,58488
75.7654,58296,58536
75.7724,58321,58587
75.8041,58368,58620
75.8194,58371,58645
75.8455,58391,58736
75.8558,58422,58710
75.8925,58415,58697
75.9175,58433,58786
75.933,58455,58816
75.9588,58484,58816
75.9831,58493,58815
76.0021,58491,58813
76.0197,58518,58879
76.051,58510,58928
76.0637,58544,58938
76.0857,58559,58975
76.1054,58580,59016
76.1424,58569,59006
76.1474,58467,58858
76.1772,58352,58649
76.1822,58209,58418
76.2244,58167,58282
76.2454,58090,58193
76.2585,58105,58187
76.2801,58139,58254
76.3155,58189,58291
76.3279,58230,58375
76.3547,58247,58430
76.3625,58271,58445
76.3974,58295,58450
76.4205,58265,58441
76.4414,58261,58370
76.4463,58238,58345
76.4878,58237,58350
76.5092,58225,58358
76.5281,58261,58383
76.5507,58272,58405
76.5849,58322,58478
76.5932,58364,58547
76.6133,58378,58569
76.6331,58400,58604
76.655,58412,58638
76.6887,58437,58663
76.7106,58432,58657
76.7304,58445,58679
76.7453,58466,58699
76.7803,58445,58702
76.7863,58468,58720
76.817,58481,58770
76.8375,58511,58814
76.8563,58526,58848
76.8842,58555,58868
76.904,58571,58878
76.9259,58558,58869
76.9454,58460,58727
76.9739,58328,58509
76.9953,58200,58310
77.0151,58106,58114
77.0508,58103,58106
77.0589,58146,58149
77.0787,58174,58212
77.099,58203,58255
77.1285,58231,58269
77.1405,58271,58326
77.1691,58279,58363
77.1893,58304,58361
77.2099,58264,58322
77.2314,58249,58302
77.2592,58233,58250
77.2771,58223,58289
77.2998,58246,58311
77.3152,58281,58328
77.3425,58313,58367
77.3623,58328,58461
77.3843,58410,58465
77.4044,58372,58512
77.4275,58393,58552
77.4536,58443,58556
77.4803,58445,58603
77.4876,58473,58624
77.5168,58477,58670
77.5431,58492,58671
77.5637,58520,58673
77.5854,58514,58703
77.6053,58508,58742
77.6276,58502,58770
77.6539,58519,58792
77.6791,58572,58819
77.6898,58589,58885
77.7165,58598,58905
77.7516,58616,58973
77.7576,58634,58975
77.7866,58611,58938
77.8076,58518,58807
77.8227,58350,58559
77.8484,58207,58306
77.8693,58105,58122
77.8909,58077,58025
77.9112,58083,58032
77.9469,58150,58109
77.9529,58155,58130
77.9826,58190,58189
78.0034,58226,58204
78.024,58211,58243
78.0428,58217,58220
78.0752,58214,58232
78.0897,58203,58186
78.1123,58195,58192
78.1357,58211,58145
78.1609,58217,58197
78.1747,58240,58249
78.1968,58253,58271
78.2243,58293,58330
78.2445,58308,58392
78.2662,58356,58421
78.2874,58364,58460
78.3136,58399,58485
78.3275,58408,58503
78.3553,58412,58513
78.3691,58424,58583
78.4038,58467,58591
78.4111,58451,58610
78.4445,58479,58648
78.4604,58482,58680
78.4964,58494,58707
78.5075,58511,58730
78.5325,58545,58757
78.5365,58548,58785
78.5781,58572,58811
78.5994,58603,58837
78.6191,58642,58909
78.64,58645,58936
78.6752,58655,58976
78.6752,58656,59009
78.7098,58668,59014
78.7307,58574,58908
78.7452,58428,58652
78.7788,58293,58405
78.8008,58189,58230
78.8152,58143,58116
78.8347,58156,58154
78.8694,58203,58183
78.8765,58261,58250
78.9045,58261,58287
78.9282,58300,58342
78.9495,58334,58388
78.9897,58313,58396
79.0033,58300,58383
79.0189,58295,58328
79.0368,58286,58295
79.0577,58257,58260
79.0774,58287,58276
79.1094,58286,58325
79.1358,58316,58359
79.149,58395,58397
79.1619,58411,58468
79.1978,58419,58501
79.2028,58480,58542
79.2355,58460,58550
79.255,58460,58580
79.2932,58488,58585
79.2932,58537,58639
79.3238,58469,58680
79.3441,58509,58694
79.3643,58527,58726
79.3899,58551,58738
79.4048,58552,58765
79.4326,58572,58783
79.4536,58573,58826
79.4744,58621,58822
79.494,58611,58877
79.5241,58651,58946
79.5366,58671,58981
79.5746,58685,59004
79.5774,58644,58941
79.6099,58505,58742
79.6291,58358,58490
79.6671,58253,58277
79.6681,58183,58148
79.6987,58167,58117
79.7185,58178,58160
79.7382,58255,58231
79.7723,58297,58282
79.7866,58316,58313
79.8078,58331,58358
79.8284,58359,58365
79.8488,58335,58365
79.8813,58329,58363
79.8908,58304,58338
79.918,58279,58324
79.9385,58303,58314
79.9594,58291,58319
79.9883,58369,58405
80.0088,58386,58431
80.0289,58423,58492
80.0427,58442,58532
80.0647,58471,58583
80.0982,58488,58626
80.1121,58509,58664
80.1339,58504,58662
80.1538,58524,58690
80.1756,58524,58732
80.2033,58533,58773
80.2314,58552,58770
80.2374,58591,58797
80.2675,58593,58840
80.2938,58620,58870
80.3207,58631,58901
80.3343,58638,58932
80.3551,58655,58955
80.3838,58672,58968
80.408,58690,59033
80.418,58715,59075
80.4432,58767,59122
80.4733,58752,59156
80.4951,58772,59148
80.509,58713,59108
80.5292,58605,58902
80.5597,58423,58639
80.5708,58289,58420
80.5994,58200,58281
80.6191,58193,58234
80.6545,58218,58260
80.6678,58297,58371
80.6886,58340,58391
80.7034,58351,58444
80.7267,58386,58457
80.7542,58391,58496
80.7816,58351,58491
80.7937,58358,58484
80.8146,58362,58444
80.8347,58303,58432
80.8624,58358,58431
80.8846,58591,58797
80.9045,58377,58453
80.9407,58424,58517
80.9507,58424,58565
80.9795,58465,58664
80.997,58500,58644
81.0218,58501,58686
81.037,58516,58717
81.0587,58594,58788
81.0774,58583,58790
81.1123,58585,58828
81.1274,58646,58853
81.1469,58596,58832
81.1825,58603,58882
81.1832,58595,58921
81.2174,58661,58943
81.2371,58617,58974
81.252,58710,58999
81.2919,58690,59049
81.2999,58717,59029
81.3261,58709,59126
81.3427,58763,59161
81.3759,58788,59201
81.3898,58792,59241
81.4123,58802,59238
81.4358,58770,59204
81.4457,58638,58991
81.4785,58498,58778
81.5025,58364,58550
81.5218,58292,58413
81.5426,58270,58362
81.5715,58424,58517
81.5921,58370,58485
81.6124,58404,58555
81.628,58441,58593
81.6606,58494,58650
81.6679,58508,58672
81.701,58510,58665
81.7188,58481,58645
81.7509,58458,58602
81.7665,58415,58564
81.7867,58408,58506
81.8065,58413,58568
81.8284,58427,58600
81.856,58482,58653
81.8801,58508,58710
81.8933,58533,58763
81.9177,58555,58805
81.9462,58591,58841
81.9607,58600,58869
81.9804,58621,58905
82.0021,58643,58937
82.0298,58639,59002
82.057,58674,58996
82.0641,58674,59037
82.0918,58707,59039
82.1233,58700,59071
82.129,58716,59078
82.1618,58736,59105
82.1678,58741,59152
82.2096,58764,59172
82.2255,58792,59209
82.2509,58404,58555
82.2648,58753,59179
82.2995,58573,58982
82.3068,58433,58713
82.3414,58319,58484
82.3559,58265,58382
82.3838,58225,58337
82.4037,58273,58344
82.4257,58310,58412
82.4453,58356,58457
82.4679,58392,58534
82.4962,58389,58618
82.5177,58427,58614
82.5356,58426,58603
82.551,58426,58614
82.5842,58395,58575
82.598,58373,58537
82.6198,58364,58486
82.6401,58343,58538
82.6754,58383,58558
82.6893,58411,58588
82.7115,58453,58668
82.7309,58534,58768
82.7699,58552,58786
82.7771,58519,58817
82.8001,58590,58850
82.823,58602,58893
82.8353,58645,58926
82.8694,58608,58923
82.8902,58618,58962
82.9106,58633,58960
82.9244,58609,59064
82.965,58620,59024
82.967,58720,59053
83.0016,58678,59098
83.0186,58681,59108
83.0415,58706,59139
83.0745,58742,59176
83.0875,58743,59194
83.1139,58781,59273
83.1304,58816,59303
83.1536,58783,59236
83.1723,58635,59077
83.1985,58475,58785
83.2096,58348,58582
83.2396,58280,58445
83.2512,58252,58406
83.286,58282,58407
83.3078,58312,58468
83.3272,58338,58517
83.3422,58395,58579
83.3758,58406,58591
83.3834,58452,58709
83.417,58444,58699
83.4356,58425,58668
83.4643,58415,58633
83.4734,58394,58594
83.5022,58378,58592
83.5081,58402,58588
83.55,58429,58603
83.5711,58424,58653
83.5923,58463,58679
83.6129,58462,58759
83.6348,58532,58828
83.6617,58579,58882
83.6824,58589,58906
83.7007,58590,58937
83.7172,58602,58960
83.7438,58607,58972
83.7739,58629,58986
83.7859,58632,58999
83.8095,58636,59030
83.8352,58677,59029
83.8632,58683,59090
83.8692,58682,59111
83.8966,58707,59140
83.9199,58717,59156
83.9449,58751,59224
83.9602,58745,59264
83.9814,58779,59287
84.0169,58803,59311
84.0288,58764,59312
84.0567,58674,59137
84.0725,58420,58752
84.0922,58364,58579
84.1326,58302,58525
84.1401,58332,58526
84.1642,58369,58544
84.1884,58396,58601
84.2033,58451,58679
84.223,58446,58747
84.2536,58478,58787
84.265,58534,58842
84.2925,58473,58812
84.3202,58479,58777
84.3422,58450,58729
84.3549,58461,58701
84.3768,58462,58705
84.4116,58461,58721
84.4323,58456,58759
84.4482,58505,58805
84.4671,58509,58816
84.499,58510,58887
84.5086,58613,58940
84.5391,58570,59009
84.5497,58624,59016
84.5846,58630,59081
84.606,58658,59080
84.6257,58634,59103
84.6408,58665,59144
84.6767,58670,59170
84.6817,58680,59148
84.7125,58692,59173
84.7324,58707,59234
84.7528,58706,59269
84.7793,58743,59268
84.7993,58781,59308
84.8213,58763,59266
84.841,58666,59150
84.877,58514,58931
84.883,58389,58662
84.9145,58267,58557
84.9327,58229,58475
84.9533,58235,58473
84.9799,58311,58531
85.0032,58325,58593
85.0157,58375,58625
85.0437,58397,58636
85.0678,58387,58689
85.092,58404,58703
85.1118,58407,58690
85.1409,58386,58651
85.1549,58338,58608
85.1796,58339,58609
85.1888,58350,58562
85.2184,58374,58634
85.2469,58411,58662
85.2584,58429,58730
85.2871,58462,58764
85.2931,58479,58820
85.3353,58496,58846
85.351,58515,58913
85.377,58538,58916
85.3916,58529,58938
85.4114,58547,58949
85.4393,58579,59005
85.4671,58587,59022
85.4842,58585,59025
85.5018,58605,59033
85.5226,58619,59076
85.5424,58618,59106
85.5744,58631,59108
85.5848,58655,59146
85.6134,58678,59186
85.6396,58670,59223
85.6616,58736,59272
85.6743,58719,59309
85.6961,58665,59217
85.724,58548,59009
85.7517,58368,58760
85.7715,58244,58552
85.7864,58173,58418
85.8186,58170,58381
85.8331,58176,58415
85.8592,58191,58444
85.8786,58266,58474
85.8974,58276,58557
85.9285,58312,58600
85.9543,58359,58619
85.9593,58314,58629
85.9868,58314,58599
86.0198,58307,58568
86.0335,58268,58545
86.0574,58247,58516
86.0635,58278,58552
86.1058,58312,58559
86.1238,58350,58646
86.1478,58356,58684
86.1603,58445,58708
86.1828,58444,58776
86.21,58467,58805
86.2376,58501,58850
86.2517,58470,58859
86.2715,58482,58874
86.3042,58476,58895
86.3146,58521,58950
86.3409,58559,58965
86.3482,58554,58977
86.3905,58542,59002
86.4063,58561,59044
86.4316,58588,59064
86.4472,58605,59080
86.4843,58622,59120
86.4873,58664,59145
86.5199,58657,59164
86.5363,58654,59210
86.5588,58696,59255
86.5705,58705,59307
86.606,58680,59259
86.6277,58572,59079
86.6472,58405,58865
86.6754,58296,58624
86.7027,58214,58494
86.7168,58175,58417
86.7368,58184,58449
86.7506,58231,58484
86.784,58273,58564
86.7933,58346,58636
86.8274,58353,58708
86.8352,58420,58747
86.8692,58379,58748
86.8942,58375,58735
86.9173,58349,58664
86.9321,58314,58624
86.9552,58333,58593
86.9848,58319,58578
87.0075,58314,58618
87.0214,58397,58682
87.0433,58390,58726
87.0755,58421,58784
87.0775,58448,58835
87.1117,58495,58875
87.119,58463,58898
87.1678,58499,58916
87.1678,58525,58957
87.2006,58526,58950
87.2167,58538,58995
87.2539,58542,58988
87.2649,58561,59025
87.2926,58574,59069
87.3124,58576,59071
87.3378,58614,59086
87.3515,58616,59115
87.3731,58617,59158
87.3974,58658,59184
87.4234,58662,59221
87.4361,58678,59233
87.4613,58641,59173
87.4831,58348,58751
87.5107,58199,58525
87.5218,58144,58395
87.5515,58118,58330
87.5634,58153,58350
87.5984,58175,58381
87.6196,58226,58447
87.6386,58267,58493
87.6543,58264,58501
87.6881,58295,58548
87.7035,58319,58598
87.7237,58285,58535
87.744,58258,58516
87.7665,58248,58501
87.7933,58236,58485
87.8183,58240,58473
87.836,58272,58492
87.8557,58302,58517
87.8837,58308,58570
87.9033,58320,58607
87.9252,58371,58702
87.9496,58420,58752
87.9592,58429,58771
87.9939,58439,58840
88.0145,58433,58810
88.0363,58424,58881
88.0583,58471,58873
88.0704,58481,58921
88.1051,58465,58896
88.1255,58512,58968
88.1405,58509,58953
88.1607,58535,58980
88.1881,58515,59006
88.2099,58559,59030
88.2377,58567,59057
88.2575,58578,59067
88.2723,58590,59121
88.3061,58607,59120
88.3134,58642,59209
88.3441,58653,59210
88.3638,58630,59182
88.3846,58421,58833
88.4033,58242,58579
88.4334,58127,58370
88.4453,58051,58260
88.4727,58045,58247
88.4958,58103,58250
88.5295,58122,58331
88.5415,58183,58368
88.5607,58194,58420
88.5864,58215,58444
88.6057,58243,58459
88.6255,58223,58484
88.6474,58224,58454
88.6699,58180,58424
88.6949,58191,58386
88.7158,58168,58396
88.7409,58172,58381
88.7508,58207,58404
88.786,58227,58455
88.8069,58247,58482
88.8269,58295,58550
88.8486,58336,58621
88.8697,58350,58657
88.8974,58368,58692
88.9102,58378,58710
88.9392,58419,58743
88.952,58422,58761
88.989,58410,58804
89.0008,58427,58800
89.0288,58452,58818
89.0431,58451,58833
89.0634,58522,58880
89.095,58499,58894
89.1051,58529,58914
89.1347,58521,58967
89.1403,58508,58985
89.183,58542,59008
89.2031,58554,59037
89.2227,58575,59079
89.2383,58595,59098
89.2725,58622,59124
89.2785,58647,59150
89.3133,58426,58896
89.3357,58292,58630
89.3566,58174,58410
89.3886,58090,58299
89.4006,58067,58245
89.4193,58096,58267
89.4384,58130,58300
89.4634,58180,58365
89.473,58190,58406
89.5155,58220,58469
89.5385,58299,58561
89.5566,58293,58540
89.5715,58248,58518
89.6052,58233,58466
89.6203,58210,58421
89.6402,58172,58381
89.6601,58171,58393
89.682,58198,58411
89.707,58223,58445
89.7366,58268,58503
89.7456,58341,58569
89.7738,58304,58626
89.8015,58349,58648
89.8149,58385,58705
89.8407,58406,58730
89.8546,58404,58751
89.8764,58414,58757
89.9102,58448,58769
89.924,58442,58782
89.9459,58447,58814
89.9657,58496,58832
89.9875,58457,58862
90.0152,58488,58888
90.0392,58501,58904
90.0571,58531,58955
90.0768,58527,58978
90.1138,58531,59050
90.1188,58594,59047
90.1495,58566,59034
90.1535,58482,58921
90.1892,58329,58674
90.2166,58053,58248
90.2417,57988,58092
90.2508,57958,58061
90.2765,58000,58062
90.3018,58040,58136
90.3208,58075,58182
90.3404,58104,58227
90.3624,58125,58281
90.4055,58143,58304
90.4105,58159,58345
90.4353,58180,58311
90.4527,58098,58270
90.4753,58100,58213
90.5033,58102,58221
90.5293,58101,58208
90.5425,58116,58266
90.5585,58135,58260
90.5852,58155,58314
90.6142,58208,58372
90.6298,58225,58422
90.6554,58253,58452
90.6675,58267,58540
90.6962,58316,58559
90.7226,58339,58583
90.7435,58329,58581
90.7654,58334,58630
90.7792,58353,58633
90.7989,58359,58665
90.835,58352,58695
90.8573,58368,58690
90.8695,58398,58714
90.8946,58410,58778
90.9147,58429,58813
90.9418,58451,58824
90.9521,58457,58868
90.9828,58481,58879
90.9938,58508,58917
91.0287,58522,58960
91.049,58532,58988
91.0709,58438,58897
91.0958,58301,58628
91.1048,58034,58159
91.1363,57918,58034
91.1612,57917,57957
91.1809,57933,57984
91.1948,57983,58048
91.2295,58028,58085
91.2409,58084,58154
91.2699,58096,58191
91.2788,58145,58243
91.3134,58144,58282
91.3442,58126,58271
91.3548,58061,58224
91.3796,58081,58202
91.3982,58055,58173
91.435,58058,58144
91.4477,58104,58184
91.4789,58123,58210
91.4866,58168,58257
91.5083,58167,58320
91.5281,58179,58355
91.5498,58233,58388
91.5702,58232,58474
91.6018,58291,58529
91.6118,58285,58547
91.6404,58314,58551
91.6701,58327,58571
91.6883,58303,58591
91.7103,58329,58645
91.7229,58345,58679
91.7607,58360,58633
91.7647,58356,58700
91.8012,58410,58732
91.8062,58351,58716
91.839,58397,58784
91.8637,58433,58802
91.8835,58494,58832
91.9031,58486,58864
91.9249,58493,58852
91.9527,58484,58901
91.9725,58434,58858
91.9943,58328,58673
92.0164,58196,58414
92.0287,57956,58040
92.0623,57933,58023
92.0845,57954,58009
92.105,57979,58077
92.1254,58034,58123
92.149,58078,58193
92.1761,58119,58255
92.1892,58166,58307
92.2097,58195,58339
92.2455,58188,58364
92.2576,58116,58256
92.2817,58099,58235
92.3015,58080,58169
92.3361,58082,58201
92.3427,58090,58199
92.37,58120,58248
92.39,58144,58287
92.4106,58159,58338
92.4319,58221,58370
92.4596,58246,58428
92.4794,58309,58505
92.495,58264,58537
92.5273,58314,58559
92.5431,58294,58593
92.5694,58320,58623
92.5845,58328,58622
92.6196,58338,58637
92.6316,58355,58645
92.654,58359,58674
92.6765,58385,58681
92.6957,58390,58725
92.7187,58405,58743
92.7455,58433,58788
92.7651,58456,58809
92.785,58412,58785
92.8186,58300,58596
92.8271,58142,58356
92.8567,57988,58102
92.8617,57883,57948
92.8895,57877,57861
92.9246,57890,57848
92.9378,57959,57932
92.9656,57990,58010
92.9794,58024,58069
93.0015,58037,58122
93.0291,58066,58131
93.0511,58096,58150
93.0706,58040,58146
93.0911,58038,58107
93.1124,58009,58045
93.1392,57991,58034
93.1631,58005,58043
93.1819,58039,58094
93.2029,58069,58134
93.2295,58085,58183
93.2574,58124,58218
93.2665,58163,58251
93.2922,58168,58284
93.3129,58189,58327
93.3389,58227,58376
93.355,58213,58392
93.3825,58211,58420
93.3984,58242,58417
93.4335,58218,58462
93.4443,58244,58485
93.4688,58271,58498
93.4927,58277,58516
93.5124,58294,58564
93.5466,58312,58572
93.5604,58331,58563
93.577,58361,58625
93.6055,58347,58671
93.6233,58399,58693
93.6405,58263,58545
93.6756,58095,58320
93.6817,57962,58015
93.7158,57866,57852
93.7319,57818,57764
93.7512,57838,57756
93.7861,57835,57829
93.7988,57882,57849
93.8208,57933,57918
93.8405,58006,57990
93.8623,58003,58035
93.8978,58023,58031
93.9103,58022,58049
93.933,58010,57997
93.9526,57981,57981
93.9724,57966,57971
94.0071,57971,57963
94.0144,57986,57952
94.0451,57994,58003
94.0492,58021,58033
94.0829,58072,58105
94.1066,58114,58178
94.1261,58140,58215
94.1458,58165,58253
94.1678,58164,58292
94.2058,58180,58302
94.2158,58198,58320
94.2415,58197,58354
94.2592,58209,58367
94.2789,58220,58389
94.3058,58225,58400
94.3277,58253,58430
94.3483,58270,58445
94.3682,58274,58488
94.396,58289,58522
94.4177,58313,58536
94.4358,58329,58556
94.4526,58371,58599
94.4845,58368,58637
94.5092,58347,58603
94.522,58063,58216
94.5428,57958,58006
94.5697,57860,57839
94.5845,57835,57764
94.6113,57835,57764
94.6322,57887,57797
94.663,57918,57878
94.6745,57963,57927
94.702,58011,58007
94.7165,58046,58071
94.7513,58068,58104
94.764,58048,58064
94.7858,58017,58016
94.8057,57964,57988
94.8397,57940,57948
94.8483,57984,57928
94.8764,57976,57922
94.8824,57992,57996
94.9243,58060,58024
94.9386,58080,58079
94.9654,58067,58126
94.9883,58149,58220
95.0163,58162,58271
95.0299,58170,58241
95.0626,58181,58289
95.0699,58191,58307
95.0948,58169,58324
95.1193,58197,58327
95.1485,58216,58358
95.1608,58227,58382
95.1829,58218,58384
95.2106,58282,58434
95.2226,58254,58467
95.2513,58289,58513
95.2643,58295,58498
95.2973,58148,58325
95.3153,58022,58086
95.3344,57863,57829
95.3603,57783,57701
95.3943,57749,57572
95.4189,57747,57613
95.431,57797,57650
95.4483,57924,57789
95.4649,57906,57817
95.4904,57905,57858
95.5005,57941,57866
95.538,57961,57877
95.5577,57923,57859
95.5776,57949,57828
95.6112,57901,57789
95.6231,57875,57777
95.6469,57894,57783
95.6712,57916,57862
95.6886,57966,57921
95.7153,57979,57950
95.7382,58016,57981
95.7577,58049,58057
95.7718,58058,58026
95.8068,58087,58091
95.8195,58080,58101
95.849,58117,58134
95.8682,58117,58160
95.8895,58141,58182
95.91,58148,58192
95.9346,58152,58219
95.9606,58156,58239
95.9744,58173,58256
95.9941,58193,58275
96.0341,58186,58324
96.0424,58225,58321
96.07,58230,58372
96.0857,58254,58413
96.1052,58264,58418
96.133,58073,58192
96.1528,57911,57881
96.1745,57775,57644
96.1944,57706,57521
96.2275,57676,57472
96.2366,57710,57504
96.2642,57746,57562
96.2712,57773,57592
96.3048,57812,57629
96.329,57843,57646
96.3498,57840,57748
96.3819,57868,57698
96.3935,57862,57689
96.4209,57830,57672
96.4371,57824,57643
96.4727,57843,57657
96.4727,57853,57659
96.5071,57868,57695
96.5223,57883,57725
96.5462,57926,57800
96.5838,57959,57859
96.5907,58039,57920
96.6135,58037,57952
96.64,58051,57962
96.6584,58052,57994
96.6817,58078,58021
96.7009,58070,58048
96.7234,58094,58072
96.7501,58119,58086
96.7761,58111,58129
96.7917,58130,58134
96.8158,58153,58195
96.8337,58164,58194
96.8665,58175,58220
96.8775,58182,58234
96.8997,58201,58262
96.925,58242,58322
96.9475,58279,58363
96.9636,58268,58365
96.9994,58284,58432
97.0003,58249,58346
97.0424,57894,57927
97.0567,57794,57689
97.0764,57759,57519
97.0921,57744,57491
97.126,57745,57512
97.1324,57791,57566
97.1672,57816,57646
97.1875,57866,57671
97.2024,57895,57707
97.2395,57948,57773
97.2519,57938,57750
97.2785,57907,57761
97.2962,57903,57729
97.3181,57888,57679
97.3355,57888,57652
97.3698,57895,57702
97.3759,57915,57725
97.4095,57949,57788
97.4262,57960,57795
97.4455,58000,57822
97.4814,58060,57908
97.4934,58069,57991
97.5212,58109,58016
97.5358,58115,58026
97.5554,58130,58014
97.5905,58123,58086
97.5976,58147,58098
97.6327,58154,58110
97.6469,58163,58096
97.6667,58190,58152
97.6894,58183,58181
97.7196,58173,58228
97.7361,58239,58230
97.764,58249,58297
97.7816,58282,58333
97.7996,58304,58346
97.8355,58257,58322
97.8456,58150,58158
97.8691,58017,57927
97.8917,57880,57672
97.9032,57795,57502
97.9378,57774,57438
97.9531,57842,57519
97.9792,57839,57591
97.993,57882,57619
98.0209,57903,57662
98.0426,57934,57715
98.0624,57980,57748
98.0843,57967,57754
98.1042,57979,57741
98.1462,57958,57715
98.1535,57942,57678
98.1878,57931,57670
98.2049,57960,57719
98.2281,57962,57741
98.2424,58017,57797
98.2622,58022,57834
98.2916,58078,57895
98.3087,58085,57941
98.3273,58104,57983
98.3534,58128,58004
98.3691,58165,58023
98.398,58139,58072
98.4166,58204,58104
98.4384,58197,58135
98.4582,58188,58129
98.4929,58211,58187
98.514,58239,58196
98.5277,58238,58211
98.5486,58251,58229
98.5785,58267,58267
98.5906,58284,58329
98.6183,58334,58310
98.6253,58374,58407
98.666,58368,58438
98.6826,58399,58446
98.7074,58328,58391
98.7156,58171,58138
98.7473,58009,57866
98.766,57871,57649
98.7929,57822,57524
98.8135,57833,57519
98.8344,57835,57542
98.8564,57942,57656
98.8828,57993,57684
98.9097,57969,57739
98.9245,58001,57790
98.9443,58033,57820
98.9791,58032,57808
98.9864,58011,57797
99.0191,58005,57751
99.0211,57998,57732
99.0543,57997,57735
99.0785,58005,57785
99.1092,58062,57833
99.1183,58104,57884
99.1431,58142,57939
99.1675,58161,57977
99.1944,58173,58035
99.2093,58202,58092
99.2304,58258,58077
99.258,58224,58123
99.2707,58233,58161
99.2998,58280,58186
99.3194,58321,58226
99.3471,58329,58248
99.355,58298,58269
99.3862,58332,58258
99.4047,58306,58335
99.4385,58354,58341
99.4511,58382,58341
99.473,58382,58400
99.493,58414,58441
99.5148,58435,58473
99.5424,58486,58569
99.5702,58438,58500
99.5841,58310,58281
99.604,58152,58033
99.635,58048,57833
99.646,57984,57734
99.6735,57972,57689
99.6807,58004,57730
99.7234,58027,57801
99.7386,58089,57869
99.7612,58173,57970
99.7776,58206,58019
99.8001,58219,58051
99.8271,58233,58065
99.8523,58199,58031
99.8618,58171,57986
99.891,58154,57959
99.9174,58173,57942
99.9374,58168,57954
99.9591,58189,57996
99.9791,58249,58069
100.008,58290,58181
100.0207,58318,58226
100.0425,58338,58269
100.0627,58356,58307
100.1024,58401,58337
100.1045,58406,58342
100.1341,58407,58387
100.1549,58430,58399
100.1895,58464,58435
100.2019,58452,58449
100.2242,58474,58495
100.2293,58470,58519
100.2675,58491,58561
100.2934,58531,58583
100.3134,58534,58610
100.3471,58539,58629
100.3572,58560,58668
100.3758,58580,58702
100.3969,58497,58571
100.4236,58353,58335
100.4534,58150,57901
100.465,58052,57818
100.4806,58037,57779
100.521,58086,57824
100.5269,58100,57887
100.5528,58162,57964
100.577,58183,57975
100.5911,58213,58009
100.6189,58233,58071
100.6387,58231,58074
100.6604,58228,58085
100.6804,58204,58018
100.7093,58197,58004
100.7299,58191,58022
100.7499,58205,58013
100.764,58220,58070
100.799,58239,58103
100.8193,58288,58153
100.8443,58333,58190
100.857,58344,58258
100.8749,58371,58285
100.9083,58404,58370
100.9312,58468,58378
100.9512,58477,58448
100.9677,58500,58485
101.0062,58477,58414
101.0072,58502,58463
101.0418,58451,58467
101.0573,58533,58551
101.0772,58495,58524
101.097,58533,58587
101.1354,58646,58649
101.1394,58574,58689
101.1668,58608,58755
101.1884,58631,58757
101.2081,58627,58770
101.2299,58602,58720
101.2497,58440,58511
101.2867,58327,58268
101.2918,58194,58091
101.3255,58130,57959
101.347,58120,57932
101.3619,58180,58011
101.3896,58218,58078
101.4106,58244,58110
101.4313,58286,58152
101.4511,58332,58176
101.4811,58319,58236
101.4947,58325,58228
101.5206,58335,58228
101.5345,58284,58194
101.5737,58289,58188
101.5767,58284,58202
101.6112,58313,58248
101.6328,58342,58291
101.6465,58376,58317
101.6789,58419,58361
101.702,58422,58426
101.722,58468,58445
101.7358,58486,58509
101.7699,58508,58547
101.7882,58526,58577
101.8062,58607,58645
101.8304,58563,58690
101.848,58585,58691
101.878,58603,58710
101.9026,58601,58733
101.9117,58599,58768
101.9314,58625,58793
101.9723,58656,58805
101.9814,58668,58842
102.01,58674,58909
102.014,58705,58935
102.0467,58626,58880
102.0771,58535,58736
102.091,58421,58551
102.116,58319,58398
102.1251,58264,58293
102.1604,58282,58282
102.1803,58306,58300
102.2011,58326,58357
102.2229,58383,58409
102.2595,58413,58471
102.2694,58465,58579
102.2946,58460,58581
102.315,58464,58584
102.3366,58449,58570
102.3566,58428,58557
102.3938,58420,58528
102.4028,58414,58509
102.4306,58432,58541
102.4445,58444,58598
102.4651,58477,58622
102.4981,58574,58714
102.5082,58532,58775
102.5345,58575,58836
102.5483,58620,58871
102.5701,58630,58893
102.5979,58639,58936
102.6199,58667,58970
102.632,58645,58961
102.6622,58699,59020
102.6941,58712,59042
102.708,58726,59056
102.7297,58686,59100
102.7519,58754,59155
102.7645,58750,59202
102.7988,58787,59232
102.8261,58818,59293
102.8399,58810,59283
102.8607,58804,59323
102.8888,58799,59307
102.9098,58698,59145
102.9237,58549,58986
102.9451,58356,58627
102.9659,58324,58547
102.9937,58357,58561
103.0215,58359,58611
103.0376,58405,58656
103.061,58410,58643
103.077,58477,58753
103.1049,58456,58779
103.1316,58467,58807
103.1488,58529,58790
103.1684,58489,58770
103.1963,58409,58730
103.2083,58419,58741
103.2379,58430,58743
103.2429,58466,58789
103.2919,58492,58805
103.3007,58511,58897
103.3273,58516,58916
103.3399,58545,58928
103.3618,58581,58963
103.3916,58572,59011
103.4137,58597,59032
103.4394,58643,59119
103.4514,58654,59110
103.4723,58673,59133
103.5006,58667,59169
103.5205,58671,59167
103.5423,58680,59198
103.5642,58691,59221
103.5911,58720,59252
103.6116,58725,59298
103.6385,58766,59324
103.6458,58772,59371
103.6749,58790,59404
103.6963,58818,59451
103.7159,58808,59433
103.7437,58713,59314
103.7636,58599,59159
103.7844,58456,58960
103.8174,58372,58781
103.8194,58337,58722
103.8561,58376,58743
103.8638,58343,58762
103.8947,58407,58805
103.9184,58434,58822
103.9381,58467,58865
103.9681,58479,58906
103.9857,58470,58898
104.0007,58486,58905
104.0316,58457,58875
104.0417,58445,58834
104.0746,58429,58834
104.0908,58419,58834
104.1149,58450,58885
104.1326,58481,58911
104.1622,58508,58949
104.1802,58542,58981
104.2045,58548,59013
104.2244,58587,59049
104.2362,58604,59075
104.2727,58603,59101
104.2921,58603,59112
104.3161,58645,59136
104.3539,58639,59188
104.3645,58661,59203
104.3819,58656,59218
104.4073,58668,59215
104.4242,58697,59253
104.4478,58714,59273
104.4649,58724,59295
104.4926,58734,59354
104.5065,58759,59339
104.5283,58749,59370
104.5595,58660,59291
104.5759,58561,59107
104.6033,58437,58933
104.6176,58357,58811
104.6454,58338,58750
104.6627,58327,58705
104.6834,58364,58720
104.709,58392,58767
104.734,58414,58820
104.7496,58448,58839
104.7715,58516,58895
104.7912,58504,58918
104.8222,58458,58900
104.8333,58468,58897
104.8657,58429,58806
104.8841,58437,58826
104.9042,58440,58833
104.931,58443,58806
104.9562,58482,58877
104.9658,58496,58862
104.9949,58523,58999
105.0204,58545,58974
105.0424,58579,58999
105.0635,58597,59036
105.0828,58598,59137
105.1175,58648,59108
105.1248,58635,59126
105.1526,58660,59155
105.1731,58669,59170
105.1871,58662,59187
105.218,58699,59267
105.2296,58707,59231
105.2597,58706,59280
105.2713,58720,59335
105.3056,58740,59312
105.3259,58758,59300
105.349,58649,59183
105.3642,58497,58971
105.3961,58388,58766
105.4122,58290,58620
105.4382,58277,58534
105.4587,58298,58545
105.4787,58328,58602
105.5005,58345,58625
105.5284,58377,58653
105.5481,58385,58680
105.5645,58403,58702
105.5995,58412,58699
105.6045,58409,58683
105.6378,58381,58660
105.6548,58355,58626
105.6742,58370,58635
105.694,58378,58644
105.7217,58403,58655
105.7434,58425,58692
105.7649,58469,58725
105.7974,58479,58766
105.8055,58491,58806
105.835,58502,58848
105.84,58546,58865
105.8745,58561,58875
105.904,58583,58923
105.9172,58576,58949
105.937,58595,58964
105.9587,58613,58996
105.9996,58630,58986
106.0133,58645,59017
106.0207,58663,59036
106.0523,58640,59068
106.0728,58662,59092
106.1049,58698,59116
106.1109,58701,59158
106.1397,58747,59218
106.1614,58731,59208
106.181,58675,59136
106.2101,58535,58948
106.2322,58420,58722
106.2504,58314,58545
106.2703,58260,58422
106.3073,58235,58393
106.3128,58269,58376
106.3508,58317,58417
106.3649,58356,58509
106.3875,58364,58520
106.4062,58390,58575
106.4255,58385,58567
106.4567,58394,58560
106.4656,58386,58540
106.4979,58384,58513
106.5157,58373,58501
106.5342,58366,58487
106.5699,58383,58507
106.5824,58430,58566
106.602,58469,58600
106.6267,58475,58639
106.6454,58471,58687
106.6663,58509,58715
106.6804,58537,58745
106.7111,58592,58775
106.7308,58568,58783
106.7503,58626,58806
106.7911,58595,58850
106.7985,58600,58869
106.8262,58667,58938
106.8434,58635,58952
106.8615,58672,58893
106.8894,58671,58969
106.9112,58709,58981
106.931,58702,59057
106.9508,58724,59036
106.9726,58739,59077
107.0004,58764,59110
107.0272,58823,59139
107.0412,58783,59140
107.0631,58706,59008
107.097,58542,58765
107.1061,58447,58569
107.1346,58332,58429
107.1386,58300,58360
107.1665,58334,58357
107.1949,58344,58384
107.2227,58379,58441
107.2425,58421,58486
107.2578,58480,58562
107.2904,58516,58623
107.2985,58485,58626
107.331,58489,58582
107.3489,58470,58558
107.3685,58454,58509
107.3883,58439,58480
107.4213,58456,58502
107.4303,58464,58535
107.4578,58467,58544
107.4811,58517,58595
107.5064,58573,58691
107.5281,58576,58719
107.5492,58614,58746
107.5827,58638,58805
107.59,58644,58826
107.6169,58655,58839
107.6324,58646,58880
107.6565,58664,58874
107.6796,58674,58904
107.7008,58673,58937
107.7225,58697,58990
107.7425,58725,58987
107.7772,58745,59018
107.7845,58771,59042
107.8143,58814,59060
107.835,58813,59092
107.8555,58838,59136
107.8805,58844,59175
107.8886,58852,59200
107.9222,58803,59113
107.9303,58552,58700
107.972,58446,58532
107.9933,58372,58411
108.0073,58373,58376
108.0272,58384,58387
108.0631,58435,58436
108.0779,58460,58479
108.0997,58494,58544
108.1184,58520,58569
108.1392,58554,58621
108.166,58536,58644
108.1902,58541,58635
108.2114,58503,58576
108.2286,58484,58567
108.2645,58471,58535
108.2711,58489,58527
108.298,58520,58557
108.3052,58535,58591
108.3389,58563,58632
108.3614,58573,58669
108.3882,58599,58708
108.3955,58745,59018
108.4274,58670,58819
108.4517,58686,58830
108.4747,58694,58861
108.4955,58685,58867
108.5184,58708,58911
108.5375,58716,58904
108.5629,58746,58932
108.5958,58751,58967
108.6038,58745,58959
108.6317,58750,59012
108.6478,58813,59052
108.669,58800,59068
108.6869,58826,59128
108.7208,58848,59149
108.7435,58821,59155
108.7573,58856,59195
108.7771,58899,59242
108.8131,58904,59211
108.8191,58803,59086
108.8477,58692,58859
108.8682,58437,58472
108.8894,58370,58372
108.916,58384,58360
108.9299,58359,58386
108.9628,58424,58419
108.9726,58448,58493
108.9928,58477,58511
109.0211,58504,58557
109.048,58536,58642
109.0628,58583,58589
109.0896,58686,58830
109.1044,58481,58508
109.1322,58480,58507
109.1613,58470,58512
109.1776,58489,58505
109.1948,58508,58497
109.2317,58517,58568
109.2427,58563,58613
109.2685,58568,58655
109.2705,58606,58671
109.3069,58647,58739
109.3336,58690,58794
109.3556,58676,58803
109.3708,58685,58807
109.3983,58706,58856
109.4335,58705,58842
109.441,58712,58862
109.4659,58731,58901
109.4855,58747,58927
109.5002,58753,58933
109.5282,58751,58956
109.5479,58779,59026
109.5708,58779,59028
109.5896,58827,59038
109.6114,58826,59091
109.6313,58857,59127
109.659,58865,59153
109.6807,58885,59155
109.7007,58847,59142
109.7234,58736,58994
109.7502,58584,58762
109.7711,58327,58406
109.792,58351,58327
109.8118,58347,58315
109.8396,58379,58361
109.8612,58421,58399
109.8824,58456,58446
109.9029,58494,58479
109.9169,58499,58518
109.9447,58534,58530
109.9738,58517,58536
109.9792,58489,58458
110.0066,58460,58462
110.041,58449,58417
110.0572,58453,58452
110.0767,58444,58473
110.0987,58482,58489
110.1107,58515,58533
110.1455,58538,58579
110.1701,58574,58612
110.1802,58593,58656
110.2088,58615,58690
110.2309,58642,58734
110.2502,58642,58757
110.277,58659,58790
110.2918,58689,58806
110.3268,58661,58829
110.3396,58702,58852
110.3614,58690,58855
110.3812,58721,58864
110.4163,58749,58912
110.4234,58746,58919
110.4533,58710,58921
110.471,58782,58997
110.5065,58767,59037
110.5136,58821,59042
110.5459,58811,59077
110.5644,58840,59118
110.5857,58886,59124
110.5995,58783,59026
110.6269,58610,58838
110.6451,58537,58634
110.6811,58382,58289
110.6873,58333,58283
110.7148,58373,58327
110.7433,58450,58355
110.7621,58461,58449
110.7849,58478,58487
110.7988,58510,58485
110.8187,58538,58550
110.8557,58527,58532
110.8709,58526,58511
110.895,58491,58532
110.9089,58462,58417
110.9307,58441,58379
110.9584,58447,58379
110.9853,58454,58431
110.9926,58499,58490
111.0225,58516,58501
111.0479,58542,58558
111.0698,58554,58589
111.0895,58573,58642
111.1104,58576,58637
111.1433,58604,58676
111.1523,58632,58680
111.1791,58642,58705
111.1958,58634,58721
111.2154,58620,58743
111.2433,58639,58755
111.2701,58662,58771
111.2923,58669,58789
111.3047,58670,58798
111.3394,58709,58858
111.3468,58720,58867
111.3784,58743,58930
111.3814,58728,58905
111.4233,58618,58754
111.4393,58484,58546
111.4585,58374,58340
111.4861,58274,58187
111.5061,58247,58109
111.528,58286,58123
111.5558,58299,58158
111.5755,58343,58207
111.591,58399,58290
111.6315,58418,58333
111.6363,58408,58348
111.6663,58425,58342
111.6824,58419,58304
111.7075,58380,58270
111.7214,58338,58231
111.7533,58349,58213
111.7725,58354,58230
111.7918,58364,58277
111.8117,58466,58324
111.8433,58464,58384
111.8543,58456,58414
111.8834,58483,58456
111.9055,58485,58491
111.923,58512,58502
111.9517,58509,58529
111.9729,58536,58567
111.9923,58532,58563
112.0071,58543,58568
112.0392,58573,58593
112.0481,58557,58617
112.0827,58598,58645
112.0985,58589,58672
112.1374,58599,58691
112.1471,58608,58735
112.1669,58630,58747
112.1866,58633,58790
112.2086,58649,58794
112.2283,58688,58812
112.2593,58684,58833
112.273,58482,58562
112.299,58340,58301
112.3255,58200,58084
112.3394,58169,57991
112.3613,58137,57945
112.381,58164,57966
112.411,58174,57995
112.4367,58214,58037
112.4505,58221,58065
112.4733,58265,58087
112.5002,58374,58120
112.5221,58264,58101
112.5518,58248,58086
112.5685,58241,58086
112.5875,58238,58038
112.6063,58223,58015
112.6404,58236,58046
112.6513,58274,58137
112.6754,58325,58085
112.6804,58307,58167
112.7167,58372,58196
112.7377,58351,58286
112.7699,58389,58310
112.7777,58386,58310
112.8046,58422,58354
112.8335,58435,58364
112.8474,58442,58388
112.8742,58427,58377
112.889,58413,58428
112.9088,58464,58456
112.9408,58454,58475
112.9652,58513,58488
112.9807,58514,58517
113.0001,58528,58575
113.0197,58546,58611
113.0546,58562,58579
113.0619,58585,58639
113.0907,58586,58655
113.1126,58608,58684
113.1319,58600,58729
113.1588,58574,58668
113.1742,58359,58267
113.2099,58147,58020
113.2234,58099,57879
113.2431,58082,57832
113.263,58095,57847
113.2847,58141,57868
113.3125,58152,57918
113.3367,58193,57981
113.3466,58200,57979
113.3759,58209,57984
113.4034,58236,58038
113.4306,58214,57997
113.4445,58201,57974
113.4644,58178,57943
113.4983,58196,57941
113.5124,58194,57965
113.5321,58235,58007
113.541,58241,58042
113.5829,58266,58083
113.5989,58281,58124
113.6241,58326,58139
113.638,58356,58223
113.6597,58371,58258
113.6896,58374,58274
113.7074,58382,58304
113.7291,58387,58312
113.7491,58403,58342
113.779,58398,58345
113.7911,58438,58399
113.8169,58432,58393
113.8335,58447,58420
113.8613,58518,58482
113.8849,58467,58499
113.9029,58499,58517
113.927,58511,58551
113.9445,58536,58574
113.9722,58542,58603
113.9921,58560,58653
114.014,58587,58673
114.0337,58615,58694
114.0702,58590,58695
114.0762,58522,58598
114.1044,58224,58132
114.1249,58116,57949
114.1562,58091,57858
114.1592,58070,57849
114.1949,58108,57874
114.2152,58139,57924
114.2343,58183,57972
114.257,58185,58003
114.2847,58227,58056
114.2986,58213,58083
114.3185,58248,58061
114.3463,58223,58059
114.374,58207,58029
114.3878,58232,57998
114.4101,58215,57999
114.4321,58236,58041
114.444,58235,58099
114.4835,58245,58137
114.4855,58323,58167
114.5198,58326,58233
114.5485,58373,58256
114.5676,58411,58329
114.5903,58414,58376
114.6121,58436,58370
114.6353,58408,58391
114.6517,58446,58381
114.6773,58425,58420
114.7008,58445,58416
114.7223,58424,58482
114.7424,58491,58490
114.7638,58503,58491
114.7837,58490,58547
114.8127,58541,58568
114.8333,58539,58616
114.8476,58543,58632
114.867,58572,58668
114.8889,58583,58687
114.9258,58606,58723
114.9369,58637,58776
114.9647,58644,58795
114.9859,58669,58814
114.9999,58512,58622
115.0278,58379,58386
115.0546,58255,58163
115.0618,58168,58013
115.0917,58144,57934
115.1125,58148,57939
115.1422,58202,58029
115.1521,58237,58077
115.1797,58259,58126
115.2032,58287,58137
115.2314,58347,58233
115.2424,58313,58222
115.2682,58325,58184
115.2792,58285,58141
115.3167,58259,58102
115.3347,58262,58114
115.3542,58279,58117
115.3818,58294,58167
115.4017,58303,58179
115.4234,58353,58251
115.4447,58369,58292
115.4723,58437,58376
115.485,58469,58411
115.507,58472,58438
115.5267,58501,58458
115.5638,58489,58471
115.5749,58503,58498
115.6035,58520,58516
115.6196,58539,58547
115.6444,58558,58557
115.6667,58576,58561
115.6881,58589,58584
115.7083,58595,58650
115.7285,58608,58690
115.7564,58633,58705
115.7768,58642,58734
115.7987,58662,58777
115.8184,58690,58812
115.8474,58724,58839
115.8536,58716,58868
115.8851,58691,58851
115.9029,58463,58475
115.9351,58328,58288
115.9514,58264,58163
115.9711,58247,58110
115.9929,58258,58117
116.0127,58288,58172
116.0452,58358,58217
116.0549,58379,58275
116.0839,58403,58330
116.0899,58437,58399
116.1284,58486,58420
116.1528,58431,58350
116.1725,58402,58349
116.1874,58385,58306
116.2266,58371,58269
116.2286,58382,58295
116.2586,58390,58324
116.2846,58433,58361
116.2985,58463,58414
116.3263,58507,58460
116.3465,58520,58502
116.368,58555,58560
116.3883,58594,58612
116.4139,58635,58646
116.4388,58613,58651
116.4581,58607,58729
116.4781,58650,58739
116.5059,58687,58725
116.5201,58686,58728
116.5475,58671,58766
116.5689,58693,58755
116.5835,58686,58812
116.6169,58694,58851
116.6388,58749,58890
116.6566,58760,58940
116.6779,58778,58943
116.6944,58789,59005
116.7145,58758,58988
116.7446,58679,58836
116.7638,58520,58555
116.7839,58366,58366
116.8114,58289,58138
116.8322,58275,58065
116.8532,58300,58098
116.8748,58339,58194
116.8959,58368,58223
116.9092,58392,58255
116.9445,58401,58314
116.9642,58414,58313
116.9882,58422,58321
117.0075,58427,58306
117.0398,58400,58281
117.0559,58385,58212
117.0832,58390,58240
117.0971,58396,58261
117.1181,58441,58328
117.1388,58444,58356
117.1588,58475,58410
117.1946,58513,58446
117.2006,58527,58483
117.2284,58571,58549
117.2357,58584,58576
117.2701,58620,58608
117.2985,58609,58634
117.3123,58633,58646
117.3391,58651,58680
117.354,58650,58701
117.3738,58641,58735
117.4069,58654,58719
117.416,58660,58756
117.4486,58695,58799
117.4719,58709,58824
117.486,58737,58849
117.5141,58769,58878
117.5417,58789,58948
117.5478,58810,58996
117.5785,58835,58987
117.6054,58776,58974
117.625,58677,58798
117.6473,58531,58540
117.6592,58382,58338
117.6886,58304,58180
117.715,58268,58117
117.7353,58318,58159
117.7566,58368,58236
117.7766,58407,58282
117.8096,58429,58295
117.8186,58475,58332
117.8473,58467,58367
117.8533,58458,58376
117.8859,58462,58359
117.9095,58443,58325
117.9298,58424,58296
117.9511,58414,58302
117.971,58443,58330
117.9929,58482,58354
118.0207,58513,58432
118.0482,58528,58464
118.0623,58582,58513
118.0843,58591,58562
118.1174,58562,58616
118.1322,58642,58638
118.1515,58601,58666
118.174,58641,58697
118.1938,58632,58714
118.2236,58680,58729
118.2356,58690,58762
118.2609,58719,58812
118.2825,58729,58814
118.2985,58709,58839
118.3283,58756,58859
118.3394,58743,58864
118.3674,58744,58930
118.3877,58778,58967
118.4197,58856,59014
118.43,58847,59045
118.4603,58872,59074
118.4714,58875,59113
118.5064,58834,59058
118.5265,58667,58891
118.5474,58553,58613
118.5692,58431,58384
118.589,58351,58305
118.611,58362,58217
118.6446,58405,58274
118.6584,58439,58359
118.6801,58461,58382
118.7134,58494,58463
118.7144,58505,58497
118.7475,58527,58510
118.7656,58530,58505
118.7846,58508,58466
118.8124,58490,58433
118.8325,58467,58397
118.8539,58458,58390
118.8737,58509,58454
118.8955,58512,58470
118.923,58554,58521
118.9453,58590,58568
118.9649,58599,58627
118.9849,58628,58658
119.0088,58638,58708
119.0473,58647,58714
119.0626,58667,58750
119.0754,58673,58782
119.103,58684,58817
119.1168,58694,58817
119.1385,58711,58838
119.1585,58738,58870
119.1936,58759,58894
119.217,58765,58916
119.2311,58768,58941
119.2421,58782,58958
119.2842,58811,58984
119.2932,58822,59022
119.3125,58864,59081
119.34,58875,59129
119.3604,58858,59152
119.3845,58812,59046
119.4015,58705,58863
119.4293,58576,58648
119.451,58435,58449
119.465,58394,58357
119.4932,58396,58318
119.5218,58392,58325
119.5269,58440,58401
119.5585,58526,58537
119.5845,58542,58559
119.6037,58584,58602
119.6289,58587,58636
119.6379,58567,58620
119.6687,58556,58595
119.7014,58518,58533
119.7074,58512,58494
119.7396,58507,58486
119.7587,58495,58501
119.7774,58523,58588
119.7973,58577,58611
119.8287,58577,58662
119.8393,58617,58713
119.8679,58687,58757
119.8886,58643,58771
119.9256,58671,58817
119.9355,58700,58847
119.9603,58703,58858
119.9643,58752,58877
119.9979,58718,58916
